Timestamp,Valor Analogico
2025-07-30 23:02:05,628
2025-07-30 23:02:05,625
2025-07-30 23:02:05,611
2025-07-30 23:02:05,594
2025-07-30 23:02:05,581
2025-07-30 23:02:05,569
2025-07-30 23:02:05,556
2025-07-30 23:02:05,541
2025-07-30 23:02:05,523
2025-07-30 23:02:05,503
2025-07-30 23:02:05,486
2025-07-30 23:02:05,474
2025-07-30 23:02:05,470
2025-07-30 23:02:05,474
2025-07-30 23:02:05,483
2025-07-30 23:02:05,497
2025-07-30 23:02:05,510
2025-07-30 23:02:05,515
2025-07-30 23:02:05,486
2025-07-30 23:02:05,443
2025-07-30 23:02:05,481
2025-07-30 23:02:05,499
2025-07-30 23:02:05,467
2025-07-30 23:02:05,487
2025-07-30 23:02:05,514
2025-07-30 23:02:05,471
2025-07-30 23:02:05,484
2025-07-30 23:02:05,498
2025-07-30 23:02:05,474
2025-07-30 23:02:05,457
2025-07-30 23:02:05,511
2025-07-30 23:02:05,490
2025-07-30 23:02:05,462
2025-07-30 23:02:05,511
2025-07-30 23:02:05,495
2025-07-30 23:02:06,447
2025-07-30 23:02:06,509
2025-07-30 23:02:06,528
2025-07-30 23:02:06,471
2025-07-30 23:02:06,504
2025-07-30 23:02:06,511
2025-07-30 23:02:06,474
2025-07-30 23:02:06,497
2025-07-30 23:02:06,542
2025-07-30 23:02:06,469
2025-07-30 23:02:06,505
2025-07-30 23:02:06,549
2025-07-30 23:02:06,527
2025-07-30 23:02:06,459
2025-07-30 23:02:06,521
2025-07-30 23:02:06,527
2025-07-30 23:02:06,474
2025-07-30 23:02:06,534
2025-07-30 23:02:06,543
2025-07-30 23:02:06,500
2025-07-30 23:02:06,525
2025-07-30 23:02:06,545
2025-07-30 23:02:06,492
2025-07-30 23:02:06,501
2025-07-30 23:02:06,562
2025-07-30 23:02:06,525
2025-07-30 23:02:06,510
2025-07-30 23:02:06,550
2025-07-30 23:02:06,528
2025-07-30 23:02:06,494
2025-07-30 23:02:06,558
2025-07-30 23:02:06,549
2025-07-30 23:02:06,498
2025-07-30 23:02:06,535
2025-07-30 23:02:06,572
2025-07-30 23:02:06,541
2025-07-30 23:02:06,552
2025-07-30 23:02:06,585
2025-07-30 23:02:06,515
2025-07-30 23:02:06,528
2025-07-30 23:02:06,570
2025-07-30 23:02:06,528
2025-07-30 23:02:06,532
2025-07-30 23:02:06,589
2025-07-30 23:02:06,557
2025-07-30 23:02:06,522
2025-07-30 23:02:06,586
2025-07-30 23:02:06,566
2025-07-30 23:02:06,549
2025-07-30 23:02:06,577
2025-07-30 23:02:06,580
2025-07-30 23:02:06,528
2025-07-30 23:02:06,576
2025-07-30 23:02:06,591
2025-07-30 23:02:06,529
2025-07-30 23:02:06,537
2025-07-30 23:02:06,589
2025-07-30 23:02:06,559
2025-07-30 23:02:06,555
2025-07-30 23:02:06,600
2025-07-30 23:02:06,564
2025-07-30 23:02:06,541
2025-07-30 23:02:06,595
2025-07-30 23:02:06,587
2025-07-30 23:02:06,551
2025-07-30 23:02:06,582
2025-07-30 23:02:06,584
2025-07-30 23:02:06,536
2025-07-30 23:02:06,568
2025-07-30 23:02:06,602
2025-07-30 23:02:06,554
2025-07-30 23:02:06,553
2025-07-30 23:02:06,599
2025-07-30 23:02:06,560
2025-07-30 23:02:06,552
2025-07-30 23:02:06,595
2025-07-30 23:02:06,568
2025-07-30 23:02:06,540
2025-07-30 23:02:06,586
2025-07-30 23:02:06,552
2025-07-30 23:02:06,533
2025-07-30 23:02:06,581
2025-07-30 23:02:06,590
2025-07-30 23:02:06,522
2025-07-30 23:02:06,551
2025-07-30 23:02:06,575
2025-07-30 23:02:06,541
2025-07-30 23:02:06,558
2025-07-30 23:02:06,586
2025-07-30 23:02:06,542
2025-07-30 23:02:06,550
2025-07-30 23:02:06,604
2025-07-30 23:02:06,586
2025-07-30 23:02:06,539
2025-07-30 23:02:06,595
2025-07-30 23:02:06,569
2025-07-30 23:02:06,545
2025-07-30 23:02:06,559
2025-07-30 23:02:06,589
2025-07-30 23:02:06,526
2025-07-30 23:02:06,559
2025-07-30 23:02:06,586
2025-07-30 23:02:06,544
2025-07-30 23:02:06,545
2025-07-30 23:02:06,603
2025-07-30 23:02:06,554
2025-07-30 23:02:06,536
2025-07-30 23:02:06,602
2025-07-30 23:02:06,584
2025-07-30 23:02:06,517
2025-07-30 23:02:06,558
2025-07-30 23:02:06,582
2025-07-30 23:02:06,558
2025-07-30 23:02:06,576
2025-07-30 23:02:06,595
2025-07-30 23:02:06,552
2025-07-30 23:02:06,557
2025-07-30 23:02:06,592
2025-07-30 23:02:06,561
2025-07-30 23:02:06,556
2025-07-30 23:02:06,605
2025-07-30 23:02:06,565
2025-07-30 23:02:06,553
2025-07-30 23:02:06,614
2025-07-30 23:02:06,585
2025-07-30 23:02:06,529
2025-07-30 23:02:06,563
2025-07-30 23:02:06,573
2025-07-30 23:02:06,533
2025-07-30 23:02:06,574
2025-07-30 23:02:06,604
2025-07-30 23:02:06,545
2025-07-30 23:02:06,571
2025-07-30 23:02:06,587
2025-07-30 23:02:06,538
2025-07-30 23:02:06,551
2025-07-30 23:02:06,611
2025-07-30 23:02:06,555
2025-07-30 23:02:06,531
2025-07-30 23:02:06,589
2025-07-30 23:02:06,572
2025-07-30 23:02:06,547
2025-07-30 23:02:06,570
2025-07-30 23:02:06,576
2025-07-30 23:02:06,535
2025-07-30 23:02:06,565
2025-07-30 23:02:06,591
2025-07-30 23:02:06,527
2025-07-30 23:02:06,551
2025-07-30 23:02:06,596
2025-07-30 23:02:06,555
2025-07-30 23:02:06,552
2025-07-30 23:02:06,598
2025-07-30 23:02:06,559
2025-07-30 23:02:06,537
2025-07-30 23:02:06,576
2025-07-30 23:02:06,560
2025-07-30 23:02:06,536
2025-07-30 23:02:06,588
2025-07-30 23:02:06,581
2025-07-30 23:02:06,538
2025-07-30 23:02:06,577
2025-07-30 23:02:06,602
2025-07-30 23:02:06,526
2025-07-30 23:02:06,550
2025-07-30 23:02:06,598
2025-07-30 23:02:06,559
2025-07-30 23:02:06,542
2025-07-30 23:02:06,589
2025-07-30 23:02:06,554
2025-07-30 23:02:06,529
2025-07-30 23:02:06,586
2025-07-30 23:02:06,558
2025-07-30 23:02:06,518
2025-07-30 23:02:06,576
2025-07-30 23:02:06,575
2025-07-30 23:02:06,528
2025-07-30 23:02:06,568
2025-07-30 23:02:06,590
2025-07-30 23:02:06,528
2025-07-30 23:02:06,528
2025-07-30 23:02:06,555
2025-07-30 23:02:06,521
2025-07-30 23:02:06,523
2025-07-30 23:02:06,565
2025-07-30 23:02:06,532
2025-07-30 23:02:06,501
2025-07-30 23:02:06,553
2025-07-30 23:02:06,543
2025-07-30 23:02:06,515
2025-07-30 23:02:06,548
2025-07-30 23:02:07,538
2025-07-30 23:02:07,505
2025-07-30 23:02:07,534
2025-07-30 23:02:07,556
2025-07-30 23:02:07,510
2025-07-30 23:02:07,534
2025-07-30 23:02:07,563
2025-07-30 23:02:07,520
2025-07-30 23:02:07,503
2025-07-30 23:02:07,557
2025-07-30 23:02:07,533
2025-07-30 23:02:07,516
2025-07-30 23:02:07,566
2025-07-30 23:02:07,552
2025-07-30 23:02:07,499
2025-07-30 23:02:07,550
2025-07-30 23:02:07,551
2025-07-30 23:02:07,497
2025-07-30 23:02:07,538
2025-07-30 23:02:07,555
2025-07-30 23:02:07,497
2025-07-30 23:02:07,508
2025-07-30 23:02:07,545
2025-07-30 23:02:07,502
2025-07-30 23:02:07,494
2025-07-30 23:02:07,540
2025-07-30 23:02:07,510
2025-07-30 23:02:07,493
2025-07-30 23:02:07,523
2025-07-30 23:02:07,513
2025-07-30 23:02:07,472
2025-07-30 23:02:07,516
2025-07-30 23:02:07,532
2025-07-30 23:02:07,478
2025-07-30 23:02:07,494
2025-07-30 23:02:07,528
2025-07-30 23:02:07,479
2025-07-30 23:02:07,484
2025-07-30 23:02:07,516
2025-07-30 23:02:07,496
2025-07-30 23:02:07,513
2025-07-30 23:02:07,566
2025-07-30 23:02:07,541
2025-07-30 23:02:07,501
2025-07-30 23:02:07,544
2025-07-30 23:02:07,533
2025-07-30 23:02:07,483
2025-07-30 23:02:07,529
2025-07-30 23:02:07,522
2025-07-30 23:02:07,470
2025-07-30 23:02:07,505
2025-07-30 23:02:07,525
2025-07-30 23:02:07,477
2025-07-30 23:02:07,482
2025-07-30 23:02:07,519
2025-07-30 23:02:07,477
2025-07-30 23:02:07,462
2025-07-30 23:02:07,509
2025-07-30 23:02:07,496
2025-07-30 23:02:07,438
2025-07-30 23:02:07,494
2025-07-30 23:02:07,490
2025-07-30 23:02:07,452
2025-07-30 23:02:07,494
2025-07-30 23:02:07,505
2025-07-30 23:02:07,462
2025-07-30 23:02:07,488
2025-07-30 23:02:07,512
2025-07-30 23:02:07,464
2025-07-30 23:02:07,471
2025-07-30 23:02:07,518
2025-07-30 23:02:07,480
2025-07-30 23:02:07,459
2025-07-30 23:02:07,524
2025-07-30 23:02:07,487
2025-07-30 23:02:07,454
2025-07-30 23:02:07,505
2025-07-30 23:02:07,500
2025-07-30 23:02:07,457
2025-07-30 23:02:07,477
2025-07-30 23:02:07,496
2025-07-30 23:02:07,456
2025-07-30 23:02:07,491
2025-07-30 23:02:07,513
2025-07-30 23:02:07,471
2025-07-30 23:02:07,487
2025-07-30 23:02:07,536
2025-07-30 23:02:07,488
2025-07-30 23:02:07,472
2025-07-30 23:02:07,518
2025-07-30 23:02:07,504
2025-07-30 23:02:07,463
2025-07-30 23:02:07,503
2025-07-30 23:02:07,504
2025-07-30 23:02:07,464
2025-07-30 23:02:07,496
2025-07-30 23:02:07,525
2025-07-30 23:02:07,464
2025-07-30 23:02:07,491
2025-07-30 23:02:07,531
2025-07-30 23:02:07,479
2025-07-30 23:02:07,493
2025-07-30 23:02:07,528
2025-07-30 23:02:07,486
2025-07-30 23:02:07,466
2025-07-30 23:02:07,516
2025-07-30 23:02:07,496
2025-07-30 23:02:07,463
2025-07-30 23:02:07,519
2025-07-30 23:02:07,509
2025-07-30 23:02:07,450
2025-07-30 23:02:07,498
2025-07-30 23:02:07,525
2025-07-30 23:02:07,467
2025-07-30 23:02:07,474
2025-07-30 23:02:07,517
2025-07-30 23:02:07,469
2025-07-30 23:02:07,469
2025-07-30 23:02:07,518
2025-07-30 23:02:07,476
2025-07-30 23:02:07,459
2025-07-30 23:02:07,508
2025-07-30 23:02:07,497
2025-07-30 23:02:07,459
2025-07-30 23:02:07,497
2025-07-30 23:02:07,491
2025-07-30 23:02:07,464
2025-07-30 23:02:07,498
2025-07-30 23:02:07,515
2025-07-30 23:02:07,463
2025-07-30 23:02:07,488
2025-07-30 23:02:07,522
2025-07-30 23:02:07,482
2025-07-30 23:02:07,490
2025-07-30 23:02:07,525
2025-07-30 23:02:07,492
2025-07-30 23:02:07,461
2025-07-30 23:02:07,523
2025-07-30 23:02:07,482
2025-07-30 23:02:07,458
2025-07-30 23:02:07,500
2025-07-30 23:02:07,530
2025-07-30 23:02:07,485
2025-07-30 23:02:07,518
2025-07-30 23:02:07,529
2025-07-30 23:02:07,474
2025-07-30 23:02:07,497
2025-07-30 23:02:07,552
2025-07-30 23:02:07,513
2025-07-30 23:02:07,488
2025-07-30 23:02:07,526
2025-07-30 23:02:07,497
2025-07-30 23:02:07,479
2025-07-30 23:02:07,525
2025-07-30 23:02:07,503
2025-07-30 23:02:07,465
2025-07-30 23:02:07,519
2025-07-30 23:02:07,529
2025-07-30 23:02:07,467
2025-07-30 23:02:07,504
2025-07-30 23:02:07,532
2025-07-30 23:02:07,490
2025-07-30 23:02:07,482
2025-07-30 23:02:07,534
2025-07-30 23:02:07,491
2025-07-30 23:02:07,486
2025-07-30 23:02:07,541
2025-07-30 23:02:07,508
2025-07-30 23:02:07,473
2025-07-30 23:02:07,516
2025-07-30 23:02:07,509
2025-07-30 23:02:07,468
2025-07-30 23:02:07,513
2025-07-30 23:02:07,519
2025-07-30 23:02:07,475
2025-07-30 23:02:07,492
2025-07-30 23:02:07,524
2025-07-30 23:02:07,483
2025-07-30 23:02:07,498
2025-07-30 23:02:07,540
2025-07-30 23:02:07,483
2025-07-30 23:02:07,485
2025-07-30 23:02:07,542
2025-07-30 23:02:07,505
2025-07-30 23:02:07,484
2025-07-30 23:02:07,529
2025-07-30 23:02:07,519
2025-07-30 23:02:07,470
2025-07-30 23:02:07,538
2025-07-30 23:02:07,527
2025-07-30 23:02:07,475
2025-07-30 23:02:07,513
2025-07-30 23:02:07,538
2025-07-30 23:02:08,490
2025-07-30 23:02:08,499
2025-07-30 23:02:08,521
2025-07-30 23:02:08,481
2025-07-30 23:02:08,477
2025-07-30 23:02:08,525
2025-07-30 23:02:08,504
2025-07-30 23:02:08,469
2025-07-30 23:02:08,517
2025-07-30 23:02:08,494
2025-07-30 23:02:08,462
2025-07-30 23:02:08,516
2025-07-30 23:02:08,529
2025-07-30 23:02:08,455
2025-07-30 23:02:08,485
2025-07-30 23:02:08,529
2025-07-30 23:02:08,480
2025-07-30 23:02:08,488
2025-07-30 23:02:08,526
2025-07-30 23:02:08,469
2025-07-30 23:02:08,457
2025-07-30 23:02:08,530
2025-07-30 23:02:08,502
2025-07-30 23:02:08,478
2025-07-30 23:02:08,525
2025-07-30 23:02:08,518
2025-07-30 23:02:08,464
2025-07-30 23:02:08,519
2025-07-30 23:02:08,526
2025-07-30 23:02:08,480
2025-07-30 23:02:08,508
2025-07-30 23:02:08,535
2025-07-30 23:02:08,485
2025-07-30 23:02:08,473
2025-07-30 23:02:08,522
2025-07-30 23:02:08,490
2025-07-30 23:02:08,466
2025-07-30 23:02:08,505
2025-07-30 23:02:08,475
2025-07-30 23:02:08,451
2025-07-30 23:02:08,495
2025-07-30 23:02:08,487
2025-07-30 23:02:08,451
2025-07-30 23:02:08,496
2025-07-30 23:02:08,503
2025-07-30 23:02:08,451
2025-07-30 23:02:08,475
2025-07-30 23:02:08,503
2025-07-30 23:02:08,450
2025-07-30 23:02:08,462
2025-07-30 23:02:08,501
2025-07-30 23:02:08,480
2025-07-30 23:02:08,468
2025-07-30 23:02:08,495
2025-07-30 23:02:08,482
2025-07-30 23:02:08,461
2025-07-30 23:02:08,507
2025-07-30 23:02:08,505
2025-07-30 23:02:08,451
2025-07-30 23:02:08,491
2025-07-30 23:02:08,531
2025-07-30 23:02:08,505
2025-07-30 23:02:08,503
2025-07-30 23:02:08,500
2025-07-30 23:02:08,459
2025-07-30 23:02:08,446
2025-07-30 23:02:08,499
2025-07-30 23:02:08,485
2025-07-30 23:02:08,475
2025-07-30 23:02:08,513
2025-07-30 23:02:08,492
2025-07-30 23:02:08,472
2025-07-30 23:02:08,525
2025-07-30 23:02:08,526
2025-07-30 23:02:08,482
2025-07-30 23:02:08,508
2025-07-30 23:02:08,514
2025-07-30 23:02:08,478
2025-07-30 23:02:08,499
2025-07-30 23:02:08,527
2025-07-30 23:02:08,484
2025-07-30 23:02:08,469
2025-07-30 23:02:08,516
2025-07-30 23:02:08,496
2025-07-30 23:02:08,480
2025-07-30 23:02:08,522
2025-07-30 23:02:08,508
2025-07-30 23:02:08,479
2025-07-30 23:02:08,529
2025-07-30 23:02:08,535
2025-07-30 23:02:08,484
2025-07-30 23:02:08,513
2025-07-30 23:02:08,559
2025-07-30 23:02:08,500
2025-07-30 23:02:08,501
2025-07-30 23:02:08,551
2025-07-30 23:02:08,482
2025-07-30 23:02:08,487
2025-07-30 23:02:08,510
2025-07-30 23:02:08,487
2025-07-30 23:02:08,474
2025-07-30 23:02:08,535
2025-07-30 23:02:08,517
2025-07-30 23:02:08,485
2025-07-30 23:02:08,524
2025-07-30 23:02:08,523
2025-07-30 23:02:08,471
2025-07-30 23:02:08,507
2025-07-30 23:02:08,531
2025-07-30 23:02:08,484
2025-07-30 23:02:08,512
2025-07-30 23:02:08,531
2025-07-30 23:02:08,506
2025-07-30 23:02:08,495
2025-07-30 23:02:08,516
2025-07-30 23:02:08,483
2025-07-30 23:02:08,468
2025-07-30 23:02:08,533
2025-07-30 23:02:08,499
2025-07-30 23:02:08,440
2025-07-30 23:02:08,507
2025-07-30 23:02:08,532
2025-07-30 23:02:08,444
2025-07-30 23:02:08,476
2025-07-30 23:02:08,518
2025-07-30 23:02:08,459
2025-07-30 23:02:08,479
2025-07-30 23:02:08,510
2025-07-30 23:02:08,472
2025-07-30 23:02:08,476
2025-07-30 23:02:08,525
2025-07-30 23:02:08,489
2025-07-30 23:02:08,471
2025-07-30 23:02:08,510
2025-07-30 23:02:08,486
2025-07-30 23:02:08,447
2025-07-30 23:02:08,506
2025-07-30 23:02:08,491
2025-07-30 23:02:08,433
2025-07-30 23:02:08,494
2025-07-30 23:02:08,522
2025-07-30 23:02:08,472
2025-07-30 23:02:08,490
2025-07-30 23:02:08,520
2025-07-30 23:02:08,466
2025-07-30 23:02:08,478
2025-07-30 23:02:08,529
2025-07-30 23:02:08,460
2025-07-30 23:02:08,470
2025-07-30 23:02:08,538
2025-07-30 23:02:08,512
2025-07-30 23:02:08,476
2025-07-30 23:02:08,513
2025-07-30 23:02:08,512
2025-07-30 23:02:08,463
2025-07-30 23:02:08,494
2025-07-30 23:02:08,517
2025-07-30 23:02:08,465
2025-07-30 23:02:08,471
2025-07-30 23:02:08,503
2025-07-30 23:02:08,458
2025-07-30 23:02:08,462
2025-07-30 23:02:08,521
2025-07-30 23:02:08,466
2025-07-30 23:02:08,433
2025-07-30 23:02:08,487
2025-07-30 23:02:08,468
2025-07-30 23:02:08,448
2025-07-30 23:02:08,459
2025-07-30 23:02:08,470
2025-07-30 23:02:08,420
2025-07-30 23:02:08,455
2025-07-30 23:02:08,480
2025-07-30 23:02:08,428
2025-07-30 23:02:08,447
2025-07-30 23:02:08,508
2025-07-30 23:02:08,438
2025-07-30 23:02:08,428
2025-07-30 23:02:08,490
2025-07-30 23:02:08,469
2025-07-30 23:02:08,438
2025-07-30 23:02:08,470
2025-07-30 23:02:08,456
2025-07-30 23:02:08,425
2025-07-30 23:02:08,477
2025-07-30 23:02:08,483
2025-07-30 23:02:08,432
2025-07-30 23:02:08,462
2025-07-30 23:02:08,478
2025-07-30 23:02:08,443
2025-07-30 23:02:08,476
2025-07-30 23:02:08,496
2025-07-30 23:02:08,460
2025-07-30 23:02:08,436
2025-07-30 23:02:09,482
2025-07-30 23:02:09,474
2025-07-30 23:02:09,452
2025-07-30 23:02:09,473
2025-07-30 23:02:09,458
2025-07-30 23:02:09,431
2025-07-30 23:02:09,478
2025-07-30 23:02:09,497
2025-07-30 23:02:09,420
2025-07-30 23:02:09,439
2025-07-30 23:02:09,484
2025-07-30 23:02:09,426
2025-07-30 23:02:09,437
2025-07-30 23:02:09,502
2025-07-30 23:02:09,430
2025-07-30 23:02:09,415
2025-07-30 23:02:09,485
2025-07-30 23:02:09,465
2025-07-30 23:02:09,470
2025-07-30 23:02:09,491
2025-07-30 23:02:09,480
2025-07-30 23:02:09,430
2025-07-30 23:02:09,470
2025-07-30 23:02:09,470
2025-07-30 23:02:09,424
2025-07-30 23:02:09,465
2025-07-30 23:02:09,508
2025-07-30 23:02:09,446
2025-07-30 23:02:09,469
2025-07-30 23:02:09,481
2025-07-30 23:02:09,435
2025-07-30 23:02:09,420
2025-07-30 23:02:09,488
2025-07-30 23:02:09,464
2025-07-30 23:02:09,449
2025-07-30 23:02:09,480
2025-07-30 23:02:09,441
2025-07-30 23:02:09,427
2025-07-30 23:02:09,483
2025-07-30 23:02:09,510
2025-07-30 23:02:09,444
2025-07-30 23:02:09,432
2025-07-30 23:02:09,478
2025-07-30 23:02:09,439
2025-07-30 23:02:09,454
2025-07-30 23:02:09,489
2025-07-30 23:02:09,439
2025-07-30 23:02:09,416
2025-07-30 23:02:09,480
2025-07-30 23:02:09,466
2025-07-30 23:02:09,412
2025-07-30 23:02:09,464
2025-07-30 23:02:09,485
2025-07-30 23:02:09,417
2025-07-30 23:02:09,437
2025-07-30 23:02:09,464
2025-07-30 23:02:09,430
2025-07-30 23:02:09,472
2025-07-30 23:02:09,493
2025-07-30 23:02:09,419
2025-07-30 23:02:09,431
2025-07-30 23:02:09,470
2025-07-30 23:02:09,428
2025-07-30 23:02:09,426
2025-07-30 23:02:09,461
2025-07-30 23:02:09,440
2025-07-30 23:02:09,408
2025-07-30 23:02:09,457
2025-07-30 23:02:09,464
2025-07-30 23:02:09,415
2025-07-30 23:02:09,445
2025-07-30 23:02:09,487
2025-07-30 23:02:09,432
2025-07-30 23:02:09,459
2025-07-30 23:02:09,504
2025-07-30 23:02:09,467
2025-07-30 23:02:09,446
2025-07-30 23:02:09,492
2025-07-30 23:02:09,458
2025-07-30 23:02:09,433
2025-07-30 23:02:09,486
2025-07-30 23:02:09,444
2025-07-30 23:02:09,429
2025-07-30 23:02:09,505
2025-07-30 23:02:09,491
2025-07-30 23:02:09,401
2025-07-30 23:02:09,460
2025-07-30 23:02:09,499
2025-07-30 23:02:09,443
2025-07-30 23:02:09,458
2025-07-30 23:02:09,498
2025-07-30 23:02:09,462
2025-07-30 23:02:09,459
2025-07-30 23:02:09,500
2025-07-30 23:02:09,452
2025-07-30 23:02:09,421
2025-07-30 23:02:09,481
2025-07-30 23:02:09,488
2025-07-30 23:02:09,459
2025-07-30 23:02:09,494
2025-07-30 23:02:09,499
2025-07-30 23:02:09,469
2025-07-30 23:02:09,508
2025-07-30 23:02:09,494
2025-07-30 23:02:09,439
2025-07-30 23:02:09,472
2025-07-30 23:02:09,518
2025-07-30 23:02:09,454
2025-07-30 23:02:09,439
2025-07-30 23:02:09,496
2025-07-30 23:02:09,480
2025-07-30 23:02:09,445
2025-07-30 23:02:09,497
2025-07-30 23:02:09,480
2025-07-30 23:02:09,458
2025-07-30 23:02:09,483
2025-07-30 23:02:09,490
2025-07-30 23:02:09,427
2025-07-30 23:02:09,477
2025-07-30 23:02:09,503
2025-07-30 23:02:09,451
2025-07-30 23:02:09,448
2025-07-30 23:02:09,487
2025-07-30 23:02:09,468
2025-07-30 23:02:09,460
2025-07-30 23:02:09,501
2025-07-30 23:02:09,463
2025-07-30 23:02:09,453
2025-07-30 23:02:09,502
2025-07-30 23:02:09,478
2025-07-30 23:02:09,426
2025-07-30 23:02:09,446
2025-07-30 23:02:09,467
2025-07-30 23:02:09,425
2025-07-30 23:02:09,445
2025-07-30 23:02:09,501
2025-07-30 23:02:09,463
2025-07-30 23:02:09,457
2025-07-30 23:02:09,491
2025-07-30 23:02:09,459
2025-07-30 23:02:09,469
2025-07-30 23:02:09,529
2025-07-30 23:02:09,493
2025-07-30 23:02:09,462
2025-07-30 23:02:09,492
2025-07-30 23:02:09,501
2025-07-30 23:02:09,479
2025-07-30 23:02:09,519
2025-07-30 23:02:09,513
2025-07-30 23:02:09,464
2025-07-30 23:02:09,495
2025-07-30 23:02:09,511
2025-07-30 23:02:09,482
2025-07-30 23:02:09,472
2025-07-30 23:02:09,506
2025-07-30 23:02:09,465
2025-07-30 23:02:09,452
2025-07-30 23:02:09,540
2025-07-30 23:02:09,475
2025-07-30 23:02:09,445
2025-07-30 23:02:09,487
2025-07-30 23:02:09,478
2025-07-30 23:02:09,461
2025-07-30 23:02:09,479
2025-07-30 23:02:09,474
2025-07-30 23:02:09,427
2025-07-30 23:02:09,468
2025-07-30 23:02:09,477
2025-07-30 23:02:09,446
2025-07-30 23:02:09,450
2025-07-30 23:02:09,489
2025-07-30 23:02:09,456
2025-07-30 23:02:09,434
2025-07-30 23:02:09,477
2025-07-30 23:02:09,453
2025-07-30 23:02:09,430
2025-07-30 23:02:09,498
2025-07-30 23:02:09,482
2025-07-30 23:02:09,430
2025-07-30 23:02:09,474
2025-07-30 23:02:09,504
2025-07-30 23:02:09,447
2025-07-30 23:02:09,460
2025-07-30 23:02:09,481
2025-07-30 23:02:09,452
2025-07-30 23:02:09,482
2025-07-30 23:02:09,517
2025-07-30 23:02:09,457
2025-07-30 23:02:09,465
2025-07-30 23:02:09,510
2025-07-30 23:02:10,484
2025-07-30 23:02:10,446
2025-07-30 23:02:10,486
2025-07-30 23:02:10,473
2025-07-30 23:02:10,432
2025-07-30 23:02:10,485
2025-07-30 23:02:10,514
2025-07-30 23:02:10,470
2025-07-30 23:02:10,486
2025-07-30 23:02:10,509
2025-07-30 23:02:10,474
2025-07-30 23:02:10,474
2025-07-30 23:02:10,534
2025-07-30 23:02:10,489
2025-07-30 23:02:10,488
2025-07-30 23:02:10,523
2025-07-30 23:02:10,489
2025-07-30 23:02:10,467
2025-07-30 23:02:10,524
2025-07-30 23:02:10,523
2025-07-30 23:02:10,471
2025-07-30 23:02:10,519
2025-07-30 23:02:10,550
2025-07-30 23:02:10,447
2025-07-30 23:02:10,496
2025-07-30 23:02:10,537
2025-07-30 23:02:10,500
2025-07-30 23:02:10,509
2025-07-30 23:02:10,555
2025-07-30 23:02:10,512
2025-07-30 23:02:10,496
2025-07-30 23:02:10,544
2025-07-30 23:02:10,532
2025-07-30 23:02:10,504
2025-07-30 23:02:10,537
2025-07-30 23:02:10,541
2025-07-30 23:02:10,499
2025-07-30 23:02:10,532
2025-07-30 23:02:10,523
2025-07-30 23:02:10,456
2025-07-30 23:02:10,497
2025-07-30 23:02:10,547
2025-07-30 23:02:10,501
2025-07-30 23:02:10,483
2025-07-30 23:02:10,524
2025-07-30 23:02:10,491
2025-07-30 23:02:10,486
2025-07-30 23:02:10,531
2025-07-30 23:02:10,510
2025-07-30 23:02:10,501
2025-07-30 23:02:10,560
2025-07-30 23:02:10,531
2025-07-30 23:02:10,473
2025-07-30 23:02:10,523
2025-07-30 23:02:10,533
2025-07-30 23:02:10,492
2025-07-30 23:02:10,524
2025-07-30 23:02:10,547
2025-07-30 23:02:10,485
2025-07-30 23:02:10,501
2025-07-30 23:02:10,550
2025-07-30 23:02:10,521
2025-07-30 23:02:10,495
2025-07-30 23:02:10,544
2025-07-30 23:02:10,532
2025-07-30 23:02:10,509
2025-07-30 23:02:10,554
2025-07-30 23:02:10,536
2025-07-30 23:02:10,485
2025-07-30 23:02:10,517
2025-07-30 23:02:10,537
2025-07-30 23:02:10,471
2025-07-30 23:02:10,504
2025-07-30 23:02:10,525
2025-07-30 23:02:10,488
2025-07-30 23:02:10,504
2025-07-30 23:02:10,550
2025-07-30 23:02:10,523
2025-07-30 23:02:10,494
2025-07-30 23:02:10,538
2025-07-30 23:02:10,518
2025-07-30 23:02:10,482
2025-07-30 23:02:10,538
2025-07-30 23:02:10,527
2025-07-30 23:02:10,480
2025-07-30 23:02:10,516
2025-07-30 23:02:10,533
2025-07-30 23:02:10,482
2025-07-30 23:02:10,508
2025-07-30 23:02:10,558
2025-07-30 23:02:10,516
2025-07-30 23:02:10,511
2025-07-30 23:02:10,563
2025-07-30 23:02:10,539
2025-07-30 23:02:10,489
2025-07-30 23:02:10,515
2025-07-30 23:02:10,517
2025-07-30 23:02:10,502
2025-07-30 23:02:10,529
2025-07-30 23:02:10,538
2025-07-30 23:02:10,490
2025-07-30 23:02:10,521
2025-07-30 23:02:10,538
2025-07-30 23:02:10,504
2025-07-30 23:02:10,509
2025-07-30 23:02:10,543
2025-07-30 23:02:10,505
2025-07-30 23:02:10,508
2025-07-30 23:02:10,546
2025-07-30 23:02:10,506
2025-07-30 23:02:10,483
2025-07-30 23:02:10,531
2025-07-30 23:02:10,525
2025-07-30 23:02:10,504
2025-07-30 23:02:10,541
2025-07-30 23:02:10,536
2025-07-30 23:02:10,479
2025-07-30 23:02:10,534
2025-07-30 23:02:10,534
2025-07-30 23:02:10,466
2025-07-30 23:02:10,476
2025-07-30 23:02:10,515
2025-07-30 23:02:10,461
2025-07-30 23:02:10,470
2025-07-30 23:02:10,525
2025-07-30 23:02:10,475
2025-07-30 23:02:10,437
2025-07-30 23:02:10,486
2025-07-30 23:02:10,455
2025-07-30 23:02:10,419
2025-07-30 23:02:10,450
2025-07-30 23:02:10,455
2025-07-30 23:02:10,401
2025-07-30 23:02:10,439
2025-07-30 23:02:10,479
2025-07-30 23:02:10,424
2025-07-30 23:02:10,456
2025-07-30 23:02:10,493
2025-07-30 23:02:10,460
2025-07-30 23:02:10,465
2025-07-30 23:02:10,494
2025-07-30 23:02:10,443
2025-07-30 23:02:10,433
2025-07-30 23:02:10,502
2025-07-30 23:02:10,481
2025-07-30 23:02:10,430
2025-07-30 23:02:10,460
2025-07-30 23:02:10,502
2025-07-30 23:02:10,463
2025-07-30 23:02:10,488
2025-07-30 23:02:10,500
2025-07-30 23:02:10,458
2025-07-30 23:02:10,476
2025-07-30 23:02:10,506
2025-07-30 23:02:10,459
2025-07-30 23:02:10,456
2025-07-30 23:02:10,503
2025-07-30 23:02:10,493
2025-07-30 23:02:10,476
2025-07-30 23:02:10,498
2025-07-30 23:02:10,454
2025-07-30 23:02:10,421
2025-07-30 23:02:10,493
2025-07-30 23:02:10,516
2025-07-30 23:02:10,454
2025-07-30 23:02:10,516
2025-07-30 23:02:10,557
2025-07-30 23:02:10,509
2025-07-30 23:02:10,517
2025-07-30 23:02:10,558
2025-07-30 23:02:10,534
2025-07-30 23:02:10,494
2025-07-30 23:02:10,527
2025-07-30 23:02:10,505
2025-07-30 23:02:10,484
2025-07-30 23:02:10,539
2025-07-30 23:02:10,531
2025-07-30 23:02:10,467
2025-07-30 23:02:10,508
2025-07-30 23:02:10,550
2025-07-30 23:02:10,501
2025-07-30 23:02:10,527
2025-07-30 23:02:10,550
2025-07-30 23:02:10,464
2025-07-30 23:02:10,487
2025-07-30 23:02:10,537
2025-07-30 23:02:10,507
2025-07-30 23:02:10,500
2025-07-30 23:02:10,553
2025-07-30 23:02:10,519
2025-07-30 23:02:10,489
2025-07-30 23:02:10,531
2025-07-30 23:02:10,529
2025-07-30 23:02:10,493
2025-07-30 23:02:11,533
2025-07-30 23:02:11,524
2025-07-30 23:02:11,484
2025-07-30 23:02:11,514
2025-07-30 23:02:11,552
2025-07-30 23:02:11,498
2025-07-30 23:02:11,514
2025-07-30 23:02:11,552
2025-07-30 23:02:11,489
2025-07-30 23:02:11,472
2025-07-30 23:02:11,531
2025-07-30 23:02:11,515
2025-07-30 23:02:11,462
2025-07-30 23:02:11,520
2025-07-30 23:02:11,513
2025-07-30 23:02:11,476
2025-07-30 23:02:11,503
2025-07-30 23:02:11,533
2025-07-30 23:02:11,480
2025-07-30 23:02:11,506
2025-07-30 23:02:11,529
2025-07-30 23:02:11,469
2025-07-30 23:02:11,484
2025-07-30 23:02:11,532
2025-07-30 23:02:11,471
2025-07-30 23:02:11,475
2025-07-30 23:02:11,527
2025-07-30 23:02:11,516
2025-07-30 23:02:11,464
2025-07-30 23:02:11,517
2025-07-30 23:02:11,515
2025-07-30 23:02:11,472
2025-07-30 23:02:11,523
2025-07-30 23:02:11,526
2025-07-30 23:02:11,465
2025-07-30 23:02:11,501
2025-07-30 23:02:11,568
2025-07-30 23:02:11,476
2025-07-30 23:02:11,464
2025-07-30 23:02:11,521
2025-07-30 23:02:11,496
2025-07-30 23:02:11,486
2025-07-30 23:02:11,531
2025-07-30 23:02:11,534
2025-07-30 23:02:11,478
2025-07-30 23:02:11,499
2025-07-30 23:02:11,485
2025-07-30 23:02:11,482
2025-07-30 23:02:11,540
2025-07-30 23:02:11,529
2025-07-30 23:02:11,450
2025-07-30 23:02:11,477
2025-07-30 23:02:11,528
2025-07-30 23:02:11,485
2025-07-30 23:02:11,484
2025-07-30 23:02:11,527
2025-07-30 23:02:11,476
2025-07-30 23:02:11,470
2025-07-30 23:02:11,519
2025-07-30 23:02:11,504
2025-07-30 23:02:11,484
2025-07-30 23:02:11,529
2025-07-30 23:02:11,519
2025-07-30 23:02:11,463
2025-07-30 23:02:11,479
2025-07-30 23:02:11,523
2025-07-30 23:02:11,477
2025-07-30 23:02:11,498
2025-07-30 23:02:11,538
2025-07-30 23:02:11,474
2025-07-30 23:02:11,487
2025-07-30 23:02:11,546
2025-07-30 23:02:11,518
2025-07-30 23:02:11,486
2025-07-30 23:02:11,541
2025-07-30 23:02:11,507
2025-07-30 23:02:11,465
2025-07-30 23:02:11,521
2025-07-30 23:02:11,525
2025-07-30 23:02:11,483
2025-07-30 23:02:11,515
2025-07-30 23:02:11,531
2025-07-30 23:02:11,491
2025-07-30 23:02:11,523
2025-07-30 23:02:11,522
2025-07-30 23:02:11,461
2025-07-30 23:02:11,481
2025-07-30 23:02:11,552
2025-07-30 23:02:11,505
2025-07-30 23:02:11,490
2025-07-30 23:02:11,549
2025-07-30 23:02:11,517
2025-07-30 23:02:11,479
2025-07-30 23:02:11,522
2025-07-30 23:02:11,529
2025-07-30 23:02:11,500
2025-07-30 23:02:11,533
2025-07-30 23:02:11,496
2025-07-30 23:02:11,463
2025-07-30 23:02:11,490
2025-07-30 23:02:11,522
2025-07-30 23:02:11,474
2025-07-30 23:02:11,469
2025-07-30 23:02:11,523
2025-07-30 23:02:11,497
2025-07-30 23:02:11,473
2025-07-30 23:02:11,517
2025-07-30 23:02:11,502
2025-07-30 23:02:11,477
2025-07-30 23:02:11,529
2025-07-30 23:02:11,519
2025-07-30 23:02:11,451
2025-07-30 23:02:11,481
2025-07-30 23:02:11,516
2025-07-30 23:02:11,479
2025-07-30 23:02:11,492
2025-07-30 23:02:11,527
2025-07-30 23:02:11,486
2025-07-30 23:02:11,491
2025-07-30 23:02:11,512
2025-07-30 23:02:11,473
2025-07-30 23:02:11,464
2025-07-30 23:02:11,524
2025-07-30 23:02:11,480
2025-07-30 23:02:11,452
2025-07-30 23:02:11,522
2025-07-30 23:02:11,502
2025-07-30 23:02:11,461
2025-07-30 23:02:11,498
2025-07-30 23:02:11,552
2025-07-30 23:02:11,472
2025-07-30 23:02:11,471
2025-07-30 23:02:11,506
2025-07-30 23:02:11,465
2025-07-30 23:02:11,475
2025-07-30 23:02:11,491
2025-07-30 23:02:11,467
2025-07-30 23:02:11,468
2025-07-30 23:02:11,493
2025-07-30 23:02:11,491
2025-07-30 23:02:11,465
2025-07-30 23:02:11,494
2025-07-30 23:02:11,495
2025-07-30 23:02:11,448
2025-07-30 23:02:11,481
2025-07-30 23:02:11,490
2025-07-30 23:02:11,437
2025-07-30 23:02:11,432
2025-07-30 23:02:11,491
2025-07-30 23:02:11,455
2025-07-30 23:02:11,444
2025-07-30 23:02:11,483
2025-07-30 23:02:11,448
2025-07-30 23:02:11,448
2025-07-30 23:02:11,516
2025-07-30 23:02:11,502
2025-07-30 23:02:11,445
2025-07-30 23:02:11,489
2025-07-30 23:02:11,495
2025-07-30 23:02:11,461
2025-07-30 23:02:11,490
2025-07-30 23:02:11,499
2025-07-30 23:02:11,447
2025-07-30 23:02:11,473
2025-07-30 23:02:11,502
2025-07-30 23:02:11,493
2025-07-30 23:02:11,470
2025-07-30 23:02:11,510
2025-07-30 23:02:11,477
2025-07-30 23:02:11,456
2025-07-30 23:02:11,509
2025-07-30 23:02:11,506
2025-07-30 23:02:11,467
2025-07-30 23:02:11,509
2025-07-30 23:02:11,504
2025-07-30 23:02:11,461
2025-07-30 23:02:11,472
2025-07-30 23:02:11,514
2025-07-30 23:02:11,464
2025-07-30 23:02:11,477
2025-07-30 23:02:11,533
2025-07-30 23:02:11,497
2025-07-30 23:02:11,474
2025-07-30 23:02:11,525
2025-07-30 23:02:11,500
2025-07-30 23:02:11,464
2025-07-30 23:02:11,502
2025-07-30 23:02:11,488
2025-07-30 23:02:11,447
2025-07-30 23:02:11,501
2025-07-30 23:02:11,518
2025-07-30 23:02:12,476
2025-07-30 23:02:12,500
2025-07-30 23:02:12,530
2025-07-30 23:02:12,474
2025-07-30 23:02:12,536
2025-07-30 23:02:12,559
2025-07-30 23:02:12,485
2025-07-30 23:02:12,476
2025-07-30 23:02:12,521
2025-07-30 23:02:12,498
2025-07-30 23:02:12,452
2025-07-30 23:02:12,524
2025-07-30 23:02:12,520
2025-07-30 23:02:12,494
2025-07-30 23:02:12,521
2025-07-30 23:02:12,534
2025-07-30 23:02:12,483
2025-07-30 23:02:12,525
2025-07-30 23:02:12,558
2025-07-30 23:02:12,525
2025-07-30 23:02:12,518
2025-07-30 23:02:12,542
2025-07-30 23:02:12,508
2025-07-30 23:02:12,500
2025-07-30 23:02:12,548
2025-07-30 23:02:12,551
2025-07-30 23:02:12,499
2025-07-30 23:02:12,525
2025-07-30 23:02:12,527
2025-07-30 23:02:12,526
2025-07-30 23:02:12,576
2025-07-30 23:02:12,568
2025-07-30 23:02:12,503
2025-07-30 23:02:12,537
2025-07-30 23:02:12,575
2025-07-30 23:02:12,540
2025-07-30 23:02:12,544
2025-07-30 23:02:12,553
2025-07-30 23:02:12,542
2025-07-30 23:02:12,536
2025-07-30 23:02:12,570
2025-07-30 23:02:12,561
2025-07-30 23:02:12,549
2025-07-30 23:02:12,608
2025-07-30 23:02:12,573
2025-07-30 23:02:12,530
2025-07-30 23:02:12,578
2025-07-30 23:02:12,595
2025-07-30 23:02:12,555
2025-07-30 23:02:12,600
2025-07-30 23:02:12,603
2025-07-30 23:02:12,550
2025-07-30 23:02:12,558
2025-07-30 23:02:12,604
2025-07-30 23:02:12,583
2025-07-30 23:02:12,576
2025-07-30 23:02:12,616
2025-07-30 23:02:12,584
2025-07-30 23:02:12,569
2025-07-30 23:02:12,611
2025-07-30 23:02:12,598
2025-07-30 23:02:12,549
2025-07-30 23:02:12,592
2025-07-30 23:02:12,615
2025-07-30 23:02:12,571
2025-07-30 23:02:12,603
2025-07-30 23:02:12,637
2025-07-30 23:02:12,614
2025-07-30 23:02:12,628
2025-07-30 23:02:12,672
2025-07-30 23:02:12,639
2025-07-30 23:02:12,620
2025-07-30 23:02:12,680
2025-07-30 23:02:12,660
2025-07-30 23:02:12,630
2025-07-30 23:02:12,646
2025-07-30 23:02:12,650
2025-07-30 23:02:12,616
2025-07-30 23:02:12,654
2025-07-30 23:02:12,668
2025-07-30 23:02:12,624
2025-07-30 23:02:12,645
2025-07-30 23:02:12,663
2025-07-30 23:02:12,634
2025-07-30 23:02:12,641
2025-07-30 23:02:12,685
2025-07-30 23:02:12,649
2025-07-30 23:02:12,632
2025-07-30 23:02:12,679
2025-07-30 23:02:12,673
2025-07-30 23:02:12,594
2025-07-30 23:02:12,627
2025-07-30 23:02:12,633
2025-07-30 23:02:12,608
2025-07-30 23:02:12,637
2025-07-30 23:02:12,648
2025-07-30 23:02:12,598
2025-07-30 23:02:12,635
2025-07-30 23:02:12,696
2025-07-30 23:02:12,607
2025-07-30 23:02:12,602
2025-07-30 23:02:12,661
2025-07-30 23:02:12,623
2025-07-30 23:02:12,598
2025-07-30 23:02:12,629
2025-07-30 23:02:12,596
2025-07-30 23:02:12,577
2025-07-30 23:02:12,626
2025-07-30 23:02:12,623
2025-07-30 23:02:12,584
2025-07-30 23:02:12,628
2025-07-30 23:02:12,627
2025-07-30 23:02:12,581
2025-07-30 23:02:12,596
2025-07-30 23:02:12,637
2025-07-30 23:02:12,617
2025-07-30 23:02:12,609
2025-07-30 23:02:12,645
2025-07-30 23:02:12,583
2025-07-30 23:02:12,554
2025-07-30 23:02:12,597
2025-07-30 23:02:12,597
2025-07-30 23:02:12,550
2025-07-30 23:02:12,598
2025-07-30 23:02:12,604
2025-07-30 23:02:12,560
2025-07-30 23:02:12,587
2025-07-30 23:02:12,605
2025-07-30 23:02:12,567
2025-07-30 23:02:12,580
2025-07-30 23:02:12,626
2025-07-30 23:02:12,592
2025-07-30 23:02:12,565
2025-07-30 23:02:12,593
2025-07-30 23:02:12,579
2025-07-30 23:02:12,563
2025-07-30 23:02:12,589
2025-07-30 23:02:12,571
2025-07-30 23:02:12,538
2025-07-30 23:02:12,585
2025-07-30 23:02:12,585
2025-07-30 23:02:12,529
2025-07-30 23:02:12,562
2025-07-30 23:02:12,595
2025-07-30 23:02:12,557
2025-07-30 23:02:12,570
2025-07-30 23:02:12,606
2025-07-30 23:02:12,576
2025-07-30 23:02:12,574
2025-07-30 23:02:12,595
2025-07-30 23:02:12,571
2025-07-30 23:02:12,544
2025-07-30 23:02:12,595
2025-07-30 23:02:12,580
2025-07-30 23:02:12,547
2025-07-30 23:02:12,584
2025-07-30 23:02:12,594
2025-07-30 23:02:12,567
2025-07-30 23:02:12,606
2025-07-30 23:02:12,629
2025-07-30 23:02:12,581
2025-07-30 23:02:12,589
2025-07-30 23:02:12,633
2025-07-30 23:02:12,575
2025-07-30 23:02:12,562
2025-07-30 23:02:12,623
2025-07-30 23:02:12,591
2025-07-30 23:02:12,553
2025-07-30 23:02:12,608
2025-07-30 23:02:12,608
2025-07-30 23:02:12,564
2025-07-30 23:02:12,590
2025-07-30 23:02:12,593
2025-07-30 23:02:12,561
2025-07-30 23:02:12,592
2025-07-30 23:02:12,610
2025-07-30 23:02:12,581
2025-07-30 23:02:12,577
2025-07-30 23:02:12,607
2025-07-30 23:02:12,564
2025-07-30 23:02:12,543
2025-07-30 23:02:12,595
2025-07-30 23:02:12,575
2025-07-30 23:02:12,554
2025-07-30 23:02:12,600
2025-07-30 23:02:12,578
2025-07-30 23:02:12,536
2025-07-30 23:02:12,580
2025-07-30 23:02:12,597
2025-07-30 23:02:12,564
2025-07-30 23:02:12,559
2025-07-30 23:02:12,584
2025-07-30 23:02:12,555
2025-07-30 23:02:13,574
2025-07-30 23:02:13,588
2025-07-30 23:02:13,544
2025-07-30 23:02:13,545
2025-07-30 23:02:13,580
2025-07-30 23:02:13,545
2025-07-30 23:02:13,527
2025-07-30 23:02:13,563
2025-07-30 23:02:13,560
2025-07-30 23:02:13,521
2025-07-30 23:02:13,554
2025-07-30 23:02:13,557
2025-07-30 23:02:13,517
2025-07-30 23:02:13,551
2025-07-30 23:02:13,591
2025-07-30 23:02:13,524
2025-07-30 23:02:13,524
2025-07-30 23:02:13,559
2025-07-30 23:02:13,515
2025-07-30 23:02:13,494
2025-07-30 23:02:13,535
2025-07-30 23:02:13,524
2025-07-30 23:02:13,503
2025-07-30 23:02:13,552
2025-07-30 23:02:13,538
2025-07-30 23:02:13,499
2025-07-30 23:02:13,538
2025-07-30 23:02:13,548
2025-07-30 23:02:13,518
2025-07-30 23:02:13,521
2025-07-30 23:02:13,533
2025-07-30 23:02:13,490
2025-07-30 23:02:13,511
2025-07-30 23:02:13,555
2025-07-30 23:02:13,503
2025-07-30 23:02:13,482
2025-07-30 23:02:13,536
2025-07-30 23:02:13,515
2025-07-30 23:02:13,487
2025-07-30 23:02:13,533
2025-07-30 23:02:13,530
2025-07-30 23:02:13,503
2025-07-30 23:02:13,532
2025-07-30 23:02:13,540
2025-07-30 23:02:13,479
2025-07-30 23:02:13,511
2025-07-30 23:02:13,536
2025-07-30 23:02:13,510
2025-07-30 23:02:13,488
2025-07-30 23:02:13,529
2025-07-30 23:02:13,498
2025-07-30 23:02:13,484
2025-07-30 23:02:13,527
2025-07-30 23:02:13,506
2025-07-30 23:02:13,479
2025-07-30 23:02:13,522
2025-07-30 23:02:13,517
2025-07-30 23:02:13,474
2025-07-30 23:02:13,536
2025-07-30 23:02:13,519
2025-07-30 23:02:13,460
2025-07-30 23:02:13,493
2025-07-30 23:02:13,521
2025-07-30 23:02:13,480
2025-07-30 23:02:13,491
2025-07-30 23:02:13,535
2025-07-30 23:02:13,491
2025-07-30 23:02:13,458
2025-07-30 23:02:13,521
2025-07-30 23:02:13,506
2025-07-30 23:02:13,468
2025-07-30 23:02:13,514
2025-07-30 23:02:13,504
2025-07-30 23:02:13,472
2025-07-30 23:02:13,514
2025-07-30 23:02:13,526
2025-07-30 23:02:13,483
2025-07-30 23:02:13,505
2025-07-30 23:02:13,532
2025-07-30 23:02:13,497
2025-07-30 23:02:13,511
2025-07-30 23:02:13,529
2025-07-30 23:02:13,484
2025-07-30 23:02:13,462
2025-07-30 23:02:13,525
2025-07-30 23:02:13,511
2025-07-30 23:02:13,474
2025-07-30 23:02:13,495
2025-07-30 23:02:13,513
2025-07-30 23:02:13,466
2025-07-30 23:02:13,501
2025-07-30 23:02:13,523
2025-07-30 23:02:13,469
2025-07-30 23:02:13,495
2025-07-30 23:02:13,531
2025-07-30 23:02:13,493
2025-07-30 23:02:13,476
2025-07-30 23:02:13,504
2025-07-30 23:02:13,487
2025-07-30 23:02:13,475
2025-07-30 23:02:13,521
2025-07-30 23:02:13,503
2025-07-30 23:02:13,470
2025-07-30 23:02:13,526
2025-07-30 23:02:13,504
2025-07-30 23:02:13,460
2025-07-30 23:02:13,498
2025-07-30 23:02:13,512
2025-07-30 23:02:13,480
2025-07-30 23:02:13,492
2025-07-30 23:02:13,506
2025-07-30 23:02:13,473
2025-07-30 23:02:13,460
2025-07-30 23:02:13,503
2025-07-30 23:02:13,468
2025-07-30 23:02:13,455
2025-07-30 23:02:13,511
2025-07-30 23:02:13,493
2025-07-30 23:02:13,456
2025-07-30 23:02:13,498
2025-07-30 23:02:13,514
2025-07-30 23:02:13,464
2025-07-30 23:02:13,492
2025-07-30 23:02:13,523
2025-07-30 23:02:13,478
2025-07-30 23:02:13,479
2025-07-30 23:02:13,489
2025-07-30 23:02:13,462
2025-07-30 23:02:13,447
2025-07-30 23:02:13,487
2025-07-30 23:02:13,473
2025-07-30 23:02:13,439
2025-07-30 23:02:13,493
2025-07-30 23:02:13,501
2025-07-30 23:02:13,469
2025-07-30 23:02:13,513
2025-07-30 23:02:13,516
2025-07-30 23:02:13,491
2025-07-30 23:02:13,501
2025-07-30 23:02:13,502
2025-07-30 23:02:13,446
2025-07-30 23:02:13,455
2025-07-30 23:02:13,508
2025-07-30 23:02:13,485
2025-07-30 23:02:13,470
2025-07-30 23:02:13,509
2025-07-30 23:02:13,471
2025-07-30 23:02:13,465
2025-07-30 23:02:13,527
2025-07-30 23:02:13,496
2025-07-30 23:02:13,440
2025-07-30 23:02:13,494
2025-07-30 23:02:13,536
2025-07-30 23:02:13,484
2025-07-30 23:02:13,490
2025-07-30 23:02:13,499
2025-07-30 23:02:13,456
2025-07-30 23:02:13,488
2025-07-30 23:02:13,524
2025-07-30 23:02:13,485
2025-07-30 23:02:13,467
2025-07-30 23:02:13,500
2025-07-30 23:02:13,484
2025-07-30 23:02:13,453
2025-07-30 23:02:13,504
2025-07-30 23:02:13,493
2025-07-30 23:02:13,477
2025-07-30 23:02:13,497
2025-07-30 23:02:13,510
2025-07-30 23:02:13,480
2025-07-30 23:02:13,477
2025-07-30 23:02:13,476
2025-07-30 23:02:13,462
2025-07-30 23:02:13,471
2025-07-30 23:02:13,514
2025-07-30 23:02:13,467
2025-07-30 23:02:13,464
2025-07-30 23:02:13,503
2025-07-30 23:02:13,485
2025-07-30 23:02:13,468
2025-07-30 23:02:13,520
2025-07-30 23:02:13,527
2025-07-30 23:02:13,438
2025-07-30 23:02:13,466
2025-07-30 23:02:13,481
2025-07-30 23:02:13,449
2025-07-30 23:02:13,457
2025-07-30 23:02:13,492
2025-07-30 23:02:13,449
2025-07-30 23:02:13,457
2025-07-30 23:02:13,479
2025-07-30 23:02:14,459
2025-07-30 23:02:14,451
2025-07-30 23:02:14,501
2025-07-30 23:02:14,481
2025-07-30 23:02:14,470
2025-07-30 23:02:14,511
2025-07-30 23:02:14,466
2025-07-30 23:02:14,422
2025-07-30 23:02:14,464
2025-07-30 23:02:14,507
2025-07-30 23:02:14,439
2025-07-30 23:02:14,461
2025-07-30 23:02:14,506
2025-07-30 23:02:14,470
2025-07-30 23:02:14,453
2025-07-30 23:02:14,481
2025-07-30 23:02:14,452
2025-07-30 23:02:14,453
2025-07-30 23:02:14,496
2025-07-30 23:02:14,460
2025-07-30 23:02:14,432
2025-07-30 23:02:14,483
2025-07-30 23:02:14,495
2025-07-30 23:02:14,476
2025-07-30 23:02:14,468
2025-07-30 23:02:14,452
2025-07-30 23:02:14,416
2025-07-30 23:02:14,459
2025-07-30 23:02:14,484
2025-07-30 23:02:14,441
2025-07-30 23:02:14,433
2025-07-30 23:02:14,491
2025-07-30 23:02:14,452
2025-07-30 23:02:14,419
2025-07-30 23:02:14,471
2025-07-30 23:02:14,462
2025-07-30 23:02:14,431
2025-07-30 23:02:14,477
2025-07-30 23:02:14,476
2025-07-30 23:02:14,434
2025-07-30 23:02:14,461
2025-07-30 23:02:14,445
2025-07-30 23:02:14,392
2025-07-30 23:02:14,440
2025-07-30 23:02:14,474
2025-07-30 23:02:14,430
2025-07-30 23:02:14,426
2025-07-30 23:02:14,479
2025-07-30 23:02:14,440
2025-07-30 23:02:14,425
2025-07-30 23:02:14,475
2025-07-30 23:02:14,457
2025-07-30 23:02:14,424
2025-07-30 23:02:14,483
2025-07-30 23:02:14,451
2025-07-30 23:02:14,420
2025-07-30 23:02:14,435
2025-07-30 23:02:14,463
2025-07-30 23:02:14,417
2025-07-30 23:02:14,435
2025-07-30 23:02:14,469
2025-07-30 23:02:14,437
2025-07-30 23:02:14,417
2025-07-30 23:02:14,472
2025-07-30 23:02:14,437
2025-07-30 23:02:14,413
2025-07-30 23:02:14,505
2025-07-30 23:02:14,489
2025-07-30 23:02:14,418
2025-07-30 23:02:14,452
2025-07-30 23:02:14,447
2025-07-30 23:02:14,423
2025-07-30 23:02:14,427
2025-07-30 23:02:14,440
2025-07-30 23:02:14,411
2025-07-30 23:02:14,436
2025-07-30 23:02:14,458
2025-07-30 23:02:14,416
2025-07-30 23:02:14,416
2025-07-30 23:02:14,458
2025-07-30 23:02:14,416
2025-07-30 23:02:14,411
2025-07-30 23:02:14,480
2025-07-30 23:02:14,432
2025-07-30 23:02:14,408
2025-07-30 23:02:14,459
2025-07-30 23:02:14,474
2025-07-30 23:02:14,416
2025-07-30 23:02:14,414
2025-07-30 23:02:14,442
2025-07-30 23:02:14,401
2025-07-30 23:02:14,412
2025-07-30 23:02:14,439
2025-07-30 23:02:14,403
2025-07-30 23:02:14,412
2025-07-30 23:02:14,457
2025-07-30 23:02:14,418
2025-07-30 23:02:14,397
2025-07-30 23:02:14,439
2025-07-30 23:02:14,427
2025-07-30 23:02:14,432
2025-07-30 23:02:14,426
2025-07-30 23:02:14,408
2025-07-30 23:02:14,377
2025-07-30 23:02:14,421
2025-07-30 23:02:14,421
2025-07-30 23:02:14,393
2025-07-30 23:02:14,422
2025-07-30 23:02:14,464
2025-07-30 23:02:14,413
2025-07-30 23:02:14,405
2025-07-30 23:02:14,438
2025-07-30 23:02:14,416
2025-07-30 23:02:14,418
2025-07-30 23:02:14,435
2025-07-30 23:02:14,412
2025-07-30 23:02:14,382
2025-07-30 23:02:14,432
2025-07-30 23:02:14,435
2025-07-30 23:02:14,396
2025-07-30 23:02:14,414
2025-07-30 23:02:14,446
2025-07-30 23:02:14,402
2025-07-30 23:02:14,430
2025-07-30 23:02:14,475
2025-07-30 23:02:14,427
2025-07-30 23:02:14,429
2025-07-30 23:02:14,465
2025-07-30 23:02:14,430
2025-07-30 23:02:14,392
2025-07-30 23:02:14,434
2025-07-30 23:02:14,437
2025-07-30 23:02:14,403
2025-07-30 23:02:14,433
2025-07-30 23:02:14,436
2025-07-30 23:02:14,407
2025-07-30 23:02:14,445
2025-07-30 23:02:14,459
2025-07-30 23:02:14,418
2025-07-30 23:02:14,427
2025-07-30 23:02:14,465
2025-07-30 23:02:14,446
2025-07-30 23:02:14,425
2025-07-30 23:02:14,452
2025-07-30 23:02:14,422
2025-07-30 23:02:14,402
2025-07-30 23:02:14,453
2025-07-30 23:02:14,450
2025-07-30 23:02:14,396
2025-07-30 23:02:14,423
2025-07-30 23:02:14,457
2025-07-30 23:02:14,422
2025-07-30 23:02:14,425
2025-07-30 23:02:14,441
2025-07-30 23:02:14,409
2025-07-30 23:02:14,406
2025-07-30 23:02:14,444
2025-07-30 23:02:14,424
2025-07-30 23:02:14,409
2025-07-30 23:02:14,453
2025-07-30 23:02:14,451
2025-07-30 23:02:14,424
2025-07-30 23:02:14,480
2025-07-30 23:02:14,443
2025-07-30 23:02:14,385
2025-07-30 23:02:14,418
2025-07-30 23:02:14,432
2025-07-30 23:02:14,389
2025-07-30 23:02:14,412
2025-07-30 23:02:14,463
2025-07-30 23:02:14,404
2025-07-30 23:02:14,411
2025-07-30 23:02:14,464
2025-07-30 23:02:14,429
2025-07-30 23:02:14,403
2025-07-30 23:02:14,442
2025-07-30 23:02:14,413
2025-07-30 23:02:14,419
2025-07-30 23:02:14,451
2025-07-30 23:02:14,442
2025-07-30 23:02:14,392
2025-07-30 23:02:14,423
2025-07-30 23:02:14,451
2025-07-30 23:02:14,420
2025-07-30 23:02:14,436
2025-07-30 23:02:14,467
2025-07-30 23:02:14,417
2025-07-30 23:02:14,417
2025-07-30 23:02:14,440
2025-07-30 23:02:14,426
2025-07-30 23:02:14,403
2025-07-30 23:02:14,434
2025-07-30 23:02:14,409
2025-07-30 23:02:15,415
2025-07-30 23:02:15,453
2025-07-30 23:02:15,412
2025-07-30 23:02:15,383
2025-07-30 23:02:15,434
2025-07-30 23:02:15,445
2025-07-30 23:02:15,375
2025-07-30 23:02:15,415
2025-07-30 23:02:15,460
2025-07-30 23:02:15,408
2025-07-30 23:02:15,404
2025-07-30 23:02:15,444
2025-07-30 23:02:15,407
2025-07-30 23:02:15,372
2025-07-30 23:02:15,422
2025-07-30 23:02:15,417
2025-07-30 23:02:15,377
2025-07-30 23:02:15,413
2025-07-30 23:02:15,417
2025-07-30 23:02:15,379
2025-07-30 23:02:15,420
2025-07-30 23:02:15,422
2025-07-30 23:02:15,356
2025-07-30 23:02:15,376
2025-07-30 23:02:15,421
2025-07-30 23:02:15,381
2025-07-30 23:02:15,381
2025-07-30 23:02:15,413
2025-07-30 23:02:15,369
2025-07-30 23:02:15,370
2025-07-30 23:02:15,419
2025-07-30 23:02:15,419
2025-07-30 23:02:15,382
2025-07-30 23:02:15,423
2025-07-30 23:02:15,418
2025-07-30 23:02:15,381
2025-07-30 23:02:15,430
2025-07-30 23:02:15,420
2025-07-30 23:02:15,367
2025-07-30 23:02:15,388
2025-07-30 23:02:15,405
2025-07-30 23:02:15,399
2025-07-30 23:02:15,383
2025-07-30 23:02:15,410
2025-07-30 23:02:15,377
2025-07-30 23:02:15,357
2025-07-30 23:02:15,420
2025-07-30 23:02:15,408
2025-07-30 23:02:15,374
2025-07-30 23:02:15,422
2025-07-30 23:02:15,428
2025-07-30 23:02:15,410
2025-07-30 23:02:15,417
2025-07-30 23:02:15,414
2025-07-30 23:02:15,371
2025-07-30 23:02:15,386
2025-07-30 23:02:15,409
2025-07-30 23:02:15,377
2025-07-30 23:02:15,388
2025-07-30 23:02:15,424
2025-07-30 23:02:15,393
2025-07-30 23:02:15,367
2025-07-30 23:02:15,422
2025-07-30 23:02:15,438
2025-07-30 23:02:15,370
2025-07-30 23:02:15,399
2025-07-30 23:02:15,425
2025-07-30 23:02:15,364
2025-07-30 23:02:15,413
2025-07-30 23:02:15,447
2025-07-30 23:02:15,391
2025-07-30 23:02:15,380
2025-07-30 23:02:15,409
2025-07-30 23:02:15,378
2025-07-30 23:02:15,376
2025-07-30 23:02:15,435
2025-07-30 23:02:15,400
2025-07-30 23:02:15,368
2025-07-30 23:02:15,410
2025-07-30 23:02:15,405
2025-07-30 23:02:15,371
2025-07-30 23:02:15,411
2025-07-30 23:02:15,451
2025-07-30 23:02:15,433
2025-07-30 23:02:15,443
2025-07-30 23:02:15,436
2025-07-30 23:02:15,373
2025-07-30 23:02:15,386
2025-07-30 23:02:15,401
2025-07-30 23:02:15,386
2025-07-30 23:02:15,388
2025-07-30 23:02:15,428
2025-07-30 23:02:15,405
2025-07-30 23:02:15,393
2025-07-30 23:02:15,444
2025-07-30 23:02:15,429
2025-07-30 23:02:15,402
2025-07-30 23:02:15,479
2025-07-30 23:02:15,440
2025-07-30 23:02:15,375
2025-07-30 23:02:15,393
2025-07-30 23:02:15,428
2025-07-30 23:02:15,390
2025-07-30 23:02:15,399
2025-07-30 23:02:15,436
2025-07-30 23:02:15,386
2025-07-30 23:02:15,396
2025-07-30 23:02:15,431
2025-07-30 23:02:15,428
2025-07-30 23:02:15,411
2025-07-30 23:02:15,471
2025-07-30 23:02:15,473
2025-07-30 23:02:15,421
2025-07-30 23:02:15,436
2025-07-30 23:02:15,425
2025-07-30 23:02:15,373
2025-07-30 23:02:15,405
2025-07-30 23:02:15,442
2025-07-30 23:02:15,409
2025-07-30 23:02:15,420
2025-07-30 23:02:15,456
2025-07-30 23:02:15,434
2025-07-30 23:02:15,437
2025-07-30 23:02:15,476
2025-07-30 23:02:15,457
2025-07-30 23:02:15,406
2025-07-30 23:02:15,465
2025-07-30 23:02:15,479
2025-07-30 23:02:15,417
2025-07-30 23:02:15,423
2025-07-30 23:02:15,432
2025-07-30 23:02:15,390
2025-07-30 23:02:15,426
2025-07-30 23:02:15,449
2025-07-30 23:02:15,413
2025-07-30 23:02:15,426
2025-07-30 23:02:15,458
2025-07-30 23:02:15,438
2025-07-30 23:02:15,434
2025-07-30 23:02:15,488
2025-07-30 23:02:15,488
2025-07-30 23:02:15,429
2025-07-30 23:02:15,444
2025-07-30 23:02:15,443
2025-07-30 23:02:15,424
2025-07-30 23:02:15,423
2025-07-30 23:02:15,428
2025-07-30 23:02:15,389
2025-07-30 23:02:15,416
2025-07-30 23:02:15,463
2025-07-30 23:02:15,434
2025-07-30 23:02:15,434
2025-07-30 23:02:15,475
2025-07-30 23:02:15,456
2025-07-30 23:02:15,463
2025-07-30 23:02:15,516
2025-07-30 23:02:15,504
2025-07-30 23:02:15,445
2025-07-30 23:02:15,435
2025-07-30 23:02:15,424
2025-07-30 23:02:15,404
2025-07-30 23:02:15,454
2025-07-30 23:02:15,463
2025-07-30 23:02:15,429
2025-07-30 23:02:15,451
2025-07-30 23:02:15,484
2025-07-30 23:02:15,435
2025-07-30 23:02:15,427
2025-07-30 23:02:15,481
2025-07-30 23:02:15,456
2025-07-30 23:02:15,438
2025-07-30 23:02:15,475
2025-07-30 23:02:15,481
2025-07-30 23:02:15,479
2025-07-30 23:02:15,504
2025-07-30 23:02:15,475
2025-07-30 23:02:15,438
2025-07-30 23:02:15,443
2025-07-30 23:02:15,460
2025-07-30 23:02:15,409
2025-07-30 23:02:15,432
2025-07-30 23:02:15,461
2025-07-30 23:02:15,432
2025-07-30 23:02:15,438
2025-07-30 23:02:15,489
2025-07-30 23:02:15,458
2025-07-30 23:02:15,443
2025-07-30 23:02:15,509
2025-07-30 23:02:15,475
2025-07-30 23:02:15,423
2025-07-30 23:02:15,452
2025-07-30 23:02:15,463
2025-07-30 23:02:15,461
2025-07-30 23:02:15,486
2025-07-30 23:02:16,491
2025-07-30 23:02:16,441
2025-07-30 23:02:16,464
2025-07-30 23:02:16,503
2025-07-30 23:02:16,462
2025-07-30 23:02:16,460
2025-07-30 23:02:16,500
2025-07-30 23:02:16,462
2025-07-30 23:02:16,447
2025-07-30 23:02:16,497
2025-07-30 23:02:16,473
2025-07-30 23:02:16,441
2025-07-30 23:02:16,483
2025-07-30 23:02:16,479
2025-07-30 23:02:16,458
2025-07-30 23:02:16,514
2025-07-30 23:02:16,504
2025-07-30 23:02:16,440
2025-07-30 23:02:16,467
2025-07-30 23:02:16,496
2025-07-30 23:02:16,453
2025-07-30 23:02:16,459
2025-07-30 23:02:16,516
2025-07-30 23:02:16,481
2025-07-30 23:02:16,469
2025-07-30 23:02:16,523
2025-07-30 23:02:16,511
2025-07-30 23:02:16,488
2025-07-30 23:02:16,515
2025-07-30 23:02:16,469
2025-07-30 23:02:16,431
2025-07-30 23:02:16,482
2025-07-30 23:02:16,511
2025-07-30 23:02:16,461
2025-07-30 23:02:16,478
2025-07-30 23:02:16,503
2025-07-30 23:02:16,489
2025-07-30 23:02:16,502
2025-07-30 23:02:16,541
2025-07-30 23:02:16,518
2025-07-30 23:02:16,511
2025-07-30 23:02:16,557
2025-07-30 23:02:16,522
2025-07-30 23:02:16,472
2025-07-30 23:02:16,518
2025-07-30 23:02:16,512
2025-07-30 23:02:16,466
2025-07-30 23:02:16,493
2025-07-30 23:02:16,542
2025-07-30 23:02:16,515
2025-07-30 23:02:16,530
2025-07-30 23:02:16,551
2025-07-30 23:02:16,511
2025-07-30 23:02:16,515
2025-07-30 23:02:16,595
2025-07-30 23:02:16,522
2025-07-30 23:02:16,498
2025-07-30 23:02:16,561
2025-07-30 23:02:16,547
2025-07-30 23:02:16,520
2025-07-30 23:02:16,559
2025-07-30 23:02:16,568
2025-07-30 23:02:16,526
2025-07-30 23:02:16,547
2025-07-30 23:02:16,558
2025-07-30 23:02:16,516
2025-07-30 23:02:16,543
2025-07-30 23:02:16,594
2025-07-30 23:02:16,538
2025-07-30 23:02:16,506
2025-07-30 23:02:16,533
2025-07-30 23:02:16,524
2025-07-30 23:02:16,496
2025-07-30 23:02:16,528
2025-07-30 23:02:16,522
2025-07-30 23:02:16,512
2025-07-30 23:02:16,561
2025-07-30 23:02:16,563
2025-07-30 23:02:16,506
2025-07-30 23:02:16,536
2025-07-30 23:02:16,577
2025-07-30 23:02:16,501
2025-07-30 23:02:16,498
2025-07-30 23:02:16,524
2025-07-30 23:02:16,514
2025-07-30 23:02:16,503
2025-07-30 23:02:16,551
2025-07-30 23:02:16,535
2025-07-30 23:02:16,491
2025-07-30 23:02:16,544
2025-07-30 23:02:16,540
2025-07-30 23:02:16,516
2025-07-30 23:02:16,547
2025-07-30 23:02:16,551
2025-07-30 23:02:16,493
2025-07-30 23:02:16,527
2025-07-30 23:02:16,556
2025-07-30 23:02:16,489
2025-07-30 23:02:16,493
2025-07-30 23:02:16,544
2025-07-30 23:02:16,516
2025-07-30 23:02:16,510
2025-07-30 23:02:16,548
2025-07-30 23:02:16,524
2025-07-30 23:02:16,504
2025-07-30 23:02:16,558
2025-07-30 23:02:16,546
2025-07-30 23:02:16,493
2025-07-30 23:02:16,550
2025-07-30 23:02:16,537
2025-07-30 23:02:16,485
2025-07-30 23:02:16,520
2025-07-30 23:02:16,540
2025-07-30 23:02:16,480
2025-07-30 23:02:16,505
2025-07-30 23:02:16,550
2025-07-30 23:02:16,514
2025-07-30 23:02:16,508
2025-07-30 23:02:16,564
2025-07-30 23:02:16,545
2025-07-30 23:02:16,507
2025-07-30 23:02:16,541
2025-07-30 23:02:16,532
2025-07-30 23:02:16,478
2025-07-30 23:02:16,524
2025-07-30 23:02:16,546
2025-07-30 23:02:16,491
2025-07-30 23:02:16,499
2025-07-30 23:02:16,526
2025-07-30 23:02:16,499
2025-07-30 23:02:16,509
2025-07-30 23:02:16,555
2025-07-30 23:02:16,525
2025-07-30 23:02:16,506
2025-07-30 23:02:16,586
2025-07-30 23:02:16,577
2025-07-30 23:02:16,521
2025-07-30 23:02:16,544
2025-07-30 23:02:16,524
2025-07-30 23:02:16,499
2025-07-30 23:02:16,541
2025-07-30 23:02:16,556
2025-07-30 23:02:16,508
2025-07-30 23:02:16,537
2025-07-30 23:02:16,571
2025-07-30 23:02:16,530
2025-07-30 23:02:16,532
2025-07-30 23:02:16,582
2025-07-30 23:02:16,545
2025-07-30 23:02:16,527
2025-07-30 23:02:16,566
2025-07-30 23:02:16,572
2025-07-30 23:02:16,507
2025-07-30 23:02:16,550
2025-07-30 23:02:16,553
2025-07-30 23:02:16,525
2025-07-30 23:02:16,569
2025-07-30 23:02:16,575
2025-07-30 23:02:16,532
2025-07-30 23:02:16,544
2025-07-30 23:02:16,570
2025-07-30 23:02:16,537
2025-07-30 23:02:16,534
2025-07-30 23:02:16,591
2025-07-30 23:02:16,567
2025-07-30 23:02:16,535
2025-07-30 23:02:16,578
2025-07-30 23:02:16,547
2025-07-30 23:02:16,528
2025-07-30 23:02:16,564
2025-07-30 23:02:16,557
2025-07-30 23:02:16,526
2025-07-30 23:02:16,580
2025-07-30 23:02:16,609
2025-07-30 23:02:16,557
2025-07-30 23:02:16,579
2025-07-30 23:02:16,623
2025-07-30 23:02:16,567
2025-07-30 23:02:16,572
2025-07-30 23:02:16,604
2025-07-30 23:02:16,565
2025-07-30 23:02:16,561
2025-07-30 23:02:16,609
2025-07-30 23:02:16,578
2025-07-30 23:02:16,555
2025-07-30 23:02:16,613
2025-07-30 23:02:16,603
2025-07-30 23:02:16,550
2025-07-30 23:02:16,585
2025-07-30 23:02:16,604
2025-07-30 23:02:17,568
2025-07-30 23:02:17,576
2025-07-30 23:02:17,610
2025-07-30 23:02:17,584
2025-07-30 23:02:17,585
2025-07-30 23:02:17,606
2025-07-30 23:02:17,570
2025-07-30 23:02:17,557
2025-07-30 23:02:17,606
2025-07-30 23:02:17,588
2025-07-30 23:02:17,558
2025-07-30 23:02:17,600
2025-07-30 23:02:17,585
2025-07-30 23:02:17,542
2025-07-30 23:02:17,588
2025-07-30 23:02:17,614
2025-07-30 23:02:17,551
2025-07-30 23:02:17,559
2025-07-30 23:02:17,599
2025-07-30 23:02:17,564
2025-07-30 23:02:17,563
2025-07-30 23:02:17,607
2025-07-30 23:02:17,582
2025-07-30 23:02:17,561
2025-07-30 23:02:17,609
2025-07-30 23:02:17,608
2025-07-30 23:02:17,568
2025-07-30 23:02:17,615
2025-07-30 23:02:17,630
2025-07-30 23:02:17,585
2025-07-30 23:02:17,602
2025-07-30 23:02:17,608
2025-07-30 23:02:17,570
2025-07-30 23:02:17,588
2025-07-30 23:02:17,631
2025-07-30 23:02:17,597
2025-07-30 23:02:17,576
2025-07-30 23:02:17,619
2025-07-30 23:02:17,597
2025-07-30 23:02:17,580
2025-07-30 23:02:17,618
2025-07-30 23:02:17,608
2025-07-30 23:02:17,572
2025-07-30 23:02:17,611
2025-07-30 23:02:17,621
2025-07-30 23:02:17,604
2025-07-30 23:02:17,616
2025-07-30 23:02:17,620
2025-07-30 23:02:17,578
2025-07-30 23:02:17,571
2025-07-30 23:02:17,611
2025-07-30 23:02:17,568
2025-07-30 23:02:17,558
2025-07-30 23:02:17,599
2025-07-30 23:02:17,592
2025-07-30 23:02:17,568
2025-07-30 23:02:17,605
2025-07-30 23:02:17,596
2025-07-30 23:02:17,582
2025-07-30 23:02:17,601
2025-07-30 23:02:17,606
2025-07-30 23:02:17,572
2025-07-30 23:02:17,595
2025-07-30 23:02:17,613
2025-07-30 23:02:17,571
2025-07-30 23:02:17,575
2025-07-30 23:02:17,615
2025-07-30 23:02:17,574
2025-07-30 23:02:17,562
2025-07-30 23:02:17,600
2025-07-30 23:02:17,585
2025-07-30 23:02:17,555
2025-07-30 23:02:17,603
2025-07-30 23:02:17,599
2025-07-30 23:02:17,557
2025-07-30 23:02:17,590
2025-07-30 23:02:17,607
2025-07-30 23:02:17,578
2025-07-30 23:02:17,622
2025-07-30 23:02:17,616
2025-07-30 23:02:17,568
2025-07-30 23:02:17,564
2025-07-30 23:02:17,603
2025-07-30 23:02:17,565
2025-07-30 23:02:17,555
2025-07-30 23:02:17,602
2025-07-30 23:02:17,586
2025-07-30 23:02:17,563
2025-07-30 23:02:17,603
2025-07-30 23:02:17,601
2025-07-30 23:02:17,557
2025-07-30 23:02:17,592
2025-07-30 23:02:17,607
2025-07-30 23:02:17,548
2025-07-30 23:02:17,575
2025-07-30 23:02:17,608
2025-07-30 23:02:17,549
2025-07-30 23:02:17,560
2025-07-30 23:02:17,602
2025-07-30 23:02:17,566
2025-07-30 23:02:17,549
2025-07-30 23:02:17,594
2025-07-30 23:02:17,585
2025-07-30 23:02:17,558
2025-07-30 23:02:17,600
2025-07-30 23:02:17,598
2025-07-30 23:02:17,557
2025-07-30 23:02:17,590
2025-07-30 23:02:17,586
2025-07-30 23:02:17,541
2025-07-30 23:02:17,575
2025-07-30 23:02:17,615
2025-07-30 23:02:17,558
2025-07-30 23:02:17,553
2025-07-30 23:02:17,597
2025-07-30 23:02:17,565
2025-07-30 23:02:17,551
2025-07-30 23:02:17,601
2025-07-30 23:02:17,592
2025-07-30 23:02:17,576
2025-07-30 23:02:17,634
2025-07-30 23:02:17,597
2025-07-30 23:02:17,543
2025-07-30 23:02:17,566
2025-07-30 23:02:17,582
2025-07-30 23:02:17,540
2025-07-30 23:02:17,565
2025-07-30 23:02:17,605
2025-07-30 23:02:17,565
2025-07-30 23:02:17,566
2025-07-30 23:02:17,609
2025-07-30 23:02:17,578
2025-07-30 23:02:17,572
2025-07-30 23:02:17,615
2025-07-30 23:02:17,603
2025-07-30 23:02:17,577
2025-07-30 23:02:17,625
2025-07-30 23:02:17,614
2025-07-30 23:02:17,562
2025-07-30 23:02:17,569
2025-07-30 23:02:17,586
2025-07-30 23:02:17,547
2025-07-30 23:02:17,572
2025-07-30 23:02:17,611
2025-07-30 23:02:17,574
2025-07-30 23:02:17,567
2025-07-30 23:02:17,624
2025-07-30 23:02:17,611
2025-07-30 23:02:17,588
2025-07-30 23:02:17,622
2025-07-30 23:02:17,600
2025-07-30 23:02:17,554
2025-07-30 23:02:17,596
2025-07-30 23:02:17,595
2025-07-30 23:02:17,538
2025-07-30 23:02:17,569
2025-07-30 23:02:17,597
2025-07-30 23:02:17,552
2025-07-30 23:02:17,569
2025-07-30 23:02:17,613
2025-07-30 23:02:17,573
2025-07-30 23:02:17,571
2025-07-30 23:02:17,628
2025-07-30 23:02:17,599
2025-07-30 23:02:17,567
2025-07-30 23:02:17,622
2025-07-30 23:02:17,578
2025-07-30 23:02:17,531
2025-07-30 23:02:17,572
2025-07-30 23:02:17,589
2025-07-30 23:02:17,548
2025-07-30 23:02:17,566
2025-07-30 23:02:17,599
2025-07-30 23:02:17,556
2025-07-30 23:02:17,573
2025-07-30 23:02:17,600
2025-07-30 23:02:17,571
2025-07-30 23:02:17,563
2025-07-30 23:02:17,611
2025-07-30 23:02:17,602
2025-07-30 23:02:17,558
2025-07-30 23:02:17,597
2025-07-30 23:02:17,592
2025-07-30 23:02:17,542
2025-07-30 23:02:17,569
2025-07-30 23:02:17,580
2025-07-30 23:02:17,539
2025-07-30 23:02:17,558
2025-07-30 23:02:17,593
2025-07-30 23:02:17,552
2025-07-30 23:02:17,559
2025-07-30 23:02:17,599
2025-07-30 23:02:17,571
2025-07-30 23:02:17,570
2025-07-30 23:02:18,584
2025-07-30 23:02:18,557
2025-07-30 23:02:18,545
2025-07-30 23:02:18,593
2025-07-30 23:02:18,595
2025-07-30 23:02:18,526
2025-07-30 23:02:18,553
2025-07-30 23:02:18,553
2025-07-30 23:02:18,510
2025-07-30 23:02:18,548
2025-07-30 23:02:18,589
2025-07-30 23:02:18,543
2025-07-30 23:02:18,548
2025-07-30 23:02:18,582
2025-07-30 23:02:18,557
2025-07-30 23:02:18,553
2025-07-30 23:02:18,577
2025-07-30 23:02:18,550
2025-07-30 23:02:18,519
2025-07-30 23:02:18,565
2025-07-30 23:02:18,581
2025-07-30 23:02:18,532
2025-07-30 23:02:18,562
2025-07-30 23:02:18,571
2025-07-30 23:02:18,520
2025-07-30 23:02:18,560
2025-07-30 23:02:18,602
2025-07-30 23:02:18,569
2025-07-30 23:02:18,568
2025-07-30 23:02:18,570
2025-07-30 23:02:18,531
2025-07-30 23:02:18,511
2025-07-30 23:02:18,580
2025-07-30 23:02:18,561
2025-07-30 23:02:18,492
2025-07-30 23:02:18,547
2025-07-30 23:02:18,558
2025-07-30 23:02:18,524
2025-07-30 23:02:18,548
2025-07-30 23:02:18,571
2025-07-30 23:02:18,541
2025-07-30 23:02:18,569
2025-07-30 23:02:18,625
2025-07-30 23:02:18,560
2025-07-30 23:02:18,519
2025-07-30 23:02:18,551
2025-07-30 23:02:18,541
2025-07-30 23:02:18,512
2025-07-30 23:02:18,552
2025-07-30 23:02:18,536
2025-07-30 23:02:18,517
2025-07-30 23:02:18,569
2025-07-30 23:02:18,564
2025-07-30 23:02:18,509
2025-07-30 23:02:18,542
2025-07-30 23:02:18,551
2025-07-30 23:02:18,501
2025-07-30 23:02:18,529
2025-07-30 23:02:18,571
2025-07-30 23:02:18,521
2025-07-30 23:02:18,530
2025-07-30 23:02:18,571
2025-07-30 23:02:18,552
2025-07-30 23:02:18,531
2025-07-30 23:02:18,569
2025-07-30 23:02:18,543
2025-07-30 23:02:18,507
2025-07-30 23:02:18,564
2025-07-30 23:02:18,564
2025-07-30 23:02:18,518
2025-07-30 23:02:18,545
2025-07-30 23:02:18,575
2025-07-30 23:02:18,526
2025-07-30 23:02:18,545
2025-07-30 23:02:18,571
2025-07-30 23:02:18,528
2025-07-30 23:02:18,516
2025-07-30 23:02:18,566
2025-07-30 23:02:18,535
2025-07-30 23:02:18,514
2025-07-30 23:02:18,558
2025-07-30 23:02:18,541
2025-07-30 23:02:18,490
2025-07-30 23:02:18,524
2025-07-30 23:02:18,531
2025-07-30 23:02:18,506
2025-07-30 23:02:18,530
2025-07-30 23:02:18,548
2025-07-30 23:02:18,516
2025-07-30 23:02:18,532
2025-07-30 23:02:18,569
2025-07-30 23:02:18,540
2025-07-30 23:02:18,510
2025-07-30 23:02:18,527
2025-07-30 23:02:18,499
2025-07-30 23:02:18,491
2025-07-30 23:02:18,558
2025-07-30 23:02:18,531
2025-07-30 23:02:18,480
2025-07-30 23:02:18,519
2025-07-30 23:02:18,525
2025-07-30 23:02:18,500
2025-07-30 23:02:18,558
2025-07-30 23:02:18,569
2025-07-30 23:02:18,492
2025-07-30 23:02:18,489
2025-07-30 23:02:18,527
2025-07-30 23:02:18,497
2025-07-30 23:02:18,509
2025-07-30 23:02:18,546
2025-07-30 23:02:18,503
2025-07-30 23:02:18,486
2025-07-30 23:02:18,530
2025-07-30 23:02:18,514
2025-07-30 23:02:18,498
2025-07-30 23:02:18,533
2025-07-30 23:02:18,543
2025-07-30 23:02:18,518
2025-07-30 23:02:18,537
2025-07-30 23:02:18,522
2025-07-30 23:02:18,486
2025-07-30 23:02:18,517
2025-07-30 23:02:18,557
2025-07-30 23:02:18,496
2025-07-30 23:02:18,474
2025-07-30 23:02:18,516
2025-07-30 23:02:18,505
2025-07-30 23:02:18,483
2025-07-30 23:02:18,525
2025-07-30 23:02:18,524
2025-07-30 23:02:18,491
2025-07-30 23:02:18,545
2025-07-30 23:02:18,573
2025-07-30 23:02:18,478
2025-07-30 23:02:18,492
2025-07-30 23:02:18,525
2025-07-30 23:02:18,494
2025-07-30 23:02:18,484
2025-07-30 23:02:18,529
2025-07-30 23:02:18,510
2025-07-30 23:02:18,499
2025-07-30 23:02:18,544
2025-07-30 23:02:18,543
2025-07-30 23:02:18,488
2025-07-30 23:02:18,546
2025-07-30 23:02:18,544
2025-07-30 23:02:18,505
2025-07-30 23:02:18,529
2025-07-30 23:02:18,501
2025-07-30 23:02:18,473
2025-07-30 23:02:18,523
2025-07-30 23:02:18,589
2025-07-30 23:02:18,492
2025-07-30 23:02:18,483
2025-07-30 23:02:18,529
2025-07-30 23:02:18,495
2025-07-30 23:02:18,488
2025-07-30 23:02:18,536
2025-07-30 23:02:18,508
2025-07-30 23:02:18,497
2025-07-30 23:02:18,533
2025-07-30 23:02:18,557
2025-07-30 23:02:18,491
2025-07-30 23:02:18,524
2025-07-30 23:02:18,549
2025-07-30 23:02:18,501
2025-07-30 23:02:18,508
2025-07-30 23:02:18,543
2025-07-30 23:02:18,494
2025-07-30 23:02:18,501
2025-07-30 23:02:18,532
2025-07-30 23:02:18,505
2025-07-30 23:02:18,496
2025-07-30 23:02:18,554
2025-07-30 23:02:18,513
2025-07-30 23:02:18,485
2025-07-30 23:02:18,549
2025-07-30 23:02:18,539
2025-07-30 23:02:18,483
2025-07-30 23:02:18,520
2025-07-30 23:02:18,544
2025-07-30 23:02:18,463
2025-07-30 23:02:18,479
2025-07-30 23:02:18,536
2025-07-30 23:02:18,495
2025-07-30 23:02:18,502
2025-07-30 23:02:18,531
2025-07-30 23:02:18,504
2025-07-30 23:02:18,463
2025-07-30 23:02:18,527
2025-07-30 23:02:19,515
2025-07-30 23:02:19,472
2025-07-30 23:02:19,516
2025-07-30 23:02:19,537
2025-07-30 23:02:19,484
2025-07-30 23:02:19,513
2025-07-30 23:02:19,520
2025-07-30 23:02:19,514
2025-07-30 23:02:19,518
2025-07-30 23:02:19,532
2025-07-30 23:02:19,496
2025-07-30 23:02:19,502
2025-07-30 23:02:19,559
2025-07-30 23:02:19,507
2025-07-30 23:02:19,505
2025-07-30 23:02:19,542
2025-07-30 23:02:19,524
2025-07-30 23:02:19,458
2025-07-30 23:02:19,497
2025-07-30 23:02:19,486
2025-07-30 23:02:19,459
2025-07-30 23:02:19,497
2025-07-30 23:02:19,521
2025-07-30 23:02:19,479
2025-07-30 23:02:19,500
2025-07-30 23:02:19,542
2025-07-30 23:02:19,468
2025-07-30 23:02:19,481
2025-07-30 23:02:19,539
2025-07-30 23:02:19,518
2025-07-30 23:02:19,458
2025-07-30 23:02:19,495
2025-07-30 23:02:19,471
2025-07-30 23:02:19,464
2025-07-30 23:02:19,501
2025-07-30 23:02:19,508
2025-07-30 23:02:19,463
2025-07-30 23:02:19,493
2025-07-30 23:02:19,524
2025-07-30 23:02:19,490
2025-07-30 23:02:19,488
2025-07-30 23:02:19,532
2025-07-30 23:02:19,461
2025-07-30 23:02:19,464
2025-07-30 23:02:19,535
2025-07-30 23:02:19,482
2025-07-30 23:02:19,442
2025-07-30 23:02:19,490
2025-07-30 23:02:19,484
2025-07-30 23:02:19,441
2025-07-30 23:02:19,478
2025-07-30 23:02:19,494
2025-07-30 23:02:19,452
2025-07-30 23:02:19,483
2025-07-30 23:02:19,507
2025-07-30 23:02:19,461
2025-07-30 23:02:19,490
2025-07-30 23:02:19,515
2025-07-30 23:02:19,495
2025-07-30 23:02:19,462
2025-07-30 23:02:19,502
2025-07-30 23:02:19,462
2025-07-30 23:02:19,437
2025-07-30 23:02:19,495
2025-07-30 23:02:19,477
2025-07-30 23:02:19,441
2025-07-30 23:02:19,488
2025-07-30 23:02:19,496
2025-07-30 23:02:19,462
2025-07-30 23:02:19,471
2025-07-30 23:02:19,513
2025-07-30 23:02:19,475
2025-07-30 23:02:19,478
2025-07-30 23:02:19,526
2025-07-30 23:02:19,476
2025-07-30 23:02:19,442
2025-07-30 23:02:19,487
2025-07-30 23:02:19,462
2025-07-30 23:02:19,440
2025-07-30 23:02:19,488
2025-07-30 23:02:19,475
2025-07-30 23:02:19,441
2025-07-30 23:02:19,492
2025-07-30 23:02:19,490
2025-07-30 23:02:19,440
2025-07-30 23:02:19,481
2025-07-30 23:02:19,516
2025-07-30 23:02:19,455
2025-07-30 23:02:19,489
2025-07-30 23:02:19,499
2025-07-30 23:02:19,448
2025-07-30 23:02:19,436
2025-07-30 23:02:19,482
2025-07-30 23:02:19,477
2025-07-30 23:02:19,427
2025-07-30 23:02:19,468
2025-07-30 23:02:19,480
2025-07-30 23:02:19,442
2025-07-30 23:02:19,481
2025-07-30 23:02:19,491
2025-07-30 23:02:19,457
2025-07-30 23:02:19,499
2025-07-30 23:02:19,501
2025-07-30 23:02:19,455
2025-07-30 23:02:19,464
2025-07-30 23:02:19,495
2025-07-30 23:02:19,453
2025-07-30 23:02:19,441
2025-07-30 23:02:19,490
2025-07-30 23:02:19,477
2025-07-30 23:02:19,457
2025-07-30 23:02:19,493
2025-07-30 23:02:19,491
2025-07-30 23:02:19,445
2025-07-30 23:02:19,489
2025-07-30 23:02:19,509
2025-07-30 23:02:19,494
2025-07-30 23:02:19,480
2025-07-30 23:02:19,489
2025-07-30 23:02:19,454
2025-07-30 23:02:19,464
2025-07-30 23:02:19,501
2025-07-30 23:02:19,454
2025-07-30 23:02:19,436
2025-07-30 23:02:19,481
2025-07-30 23:02:19,471
2025-07-30 23:02:19,455
2025-07-30 23:02:19,498
2025-07-30 23:02:19,488
2025-07-30 23:02:19,450
2025-07-30 23:02:19,495
2025-07-30 23:02:19,529
2025-07-30 23:02:19,449
2025-07-30 23:02:19,480
2025-07-30 23:02:19,503
2025-07-30 23:02:19,463
2025-07-30 23:02:19,459
2025-07-30 23:02:19,500
2025-07-30 23:02:19,474
2025-07-30 23:02:19,472
2025-07-30 23:02:19,515
2025-07-30 23:02:19,486
2025-07-30 23:02:19,450
2025-07-30 23:02:19,498
2025-07-30 23:02:19,508
2025-07-30 23:02:19,467
2025-07-30 23:02:19,509
2025-07-30 23:02:19,544
2025-07-30 23:02:19,477
2025-07-30 23:02:19,494
2025-07-30 23:02:19,513
2025-07-30 23:02:19,451
2025-07-30 23:02:19,462
2025-07-30 23:02:19,509
2025-07-30 23:02:19,472
2025-07-30 23:02:19,454
2025-07-30 23:02:19,513
2025-07-30 23:02:19,500
2025-07-30 23:02:19,457
2025-07-30 23:02:19,504
2025-07-30 23:02:19,506
2025-07-30 23:02:19,478
2025-07-30 23:02:19,509
2025-07-30 23:02:19,516
2025-07-30 23:02:19,474
2025-07-30 23:02:19,468
2025-07-30 23:02:19,504
2025-07-30 23:02:19,468
2025-07-30 23:02:19,455
2025-07-30 23:02:19,520
2025-07-30 23:02:19,495
2025-07-30 23:02:19,464
2025-07-30 23:02:19,527
2025-07-30 23:02:19,505
2025-07-30 23:02:19,454
2025-07-30 23:02:19,500
2025-07-30 23:02:19,533
2025-07-30 23:02:19,506
2025-07-30 23:02:19,511
2025-07-30 23:02:19,527
2025-07-30 23:02:19,469
2025-07-30 23:02:19,480
2025-07-30 23:02:19,532
2025-07-30 23:02:19,496
2025-07-30 23:02:19,474
2025-07-30 23:02:19,516
2025-07-30 23:02:19,492
2025-07-30 23:02:19,483
2025-07-30 23:02:19,538
2025-07-30 23:02:19,524
2025-07-30 23:02:19,468
2025-07-30 23:02:19,515
2025-07-30 23:02:19,524
2025-07-30 23:02:19,489
2025-07-30 23:02:20,510
2025-07-30 23:02:20,519
2025-07-30 23:02:20,482
2025-07-30 23:02:20,534
2025-07-30 23:02:20,549
2025-07-30 23:02:20,468
2025-07-30 23:02:20,465
2025-07-30 23:02:20,526
2025-07-30 23:02:20,508
2025-07-30 23:02:20,489
2025-07-30 23:02:20,529
2025-07-30 23:02:20,521
2025-07-30 23:02:20,481
2025-07-30 23:02:20,565
2025-07-30 23:02:20,533
2025-07-30 23:02:20,453
2025-07-30 23:02:20,491
2025-07-30 23:02:20,528
2025-07-30 23:02:20,479
2025-07-30 23:02:20,478
2025-07-30 23:02:20,521
2025-07-30 23:02:20,505
2025-07-30 23:02:20,506
2025-07-30 23:02:20,557
2025-07-30 23:02:20,518
2025-07-30 23:02:20,463
2025-07-30 23:02:20,518
2025-07-30 23:02:20,595
2025-07-30 23:02:20,486
2025-07-30 23:02:20,496
2025-07-30 23:02:20,513
2025-07-30 23:02:20,468
2025-07-30 23:02:20,499
2025-07-30 23:02:20,536
2025-07-30 23:02:20,469
2025-07-30 23:02:20,480
2025-07-30 23:02:20,549
2025-07-30 23:02:20,525
2025-07-30 23:02:20,538
2025-07-30 23:02:20,540
2025-07-30 23:02:20,533
2025-07-30 23:02:20,494
2025-07-30 23:02:20,526
2025-07-30 23:02:20,563
2025-07-30 23:02:20,514
2025-07-30 23:02:20,507
2025-07-30 23:02:20,519
2025-07-30 23:02:20,502
2025-07-30 23:02:20,512
2025-07-30 23:02:20,536
2025-07-30 23:02:20,502
2025-07-30 23:02:20,494
2025-07-30 23:02:20,576
2025-07-30 23:02:20,515
2025-07-30 23:02:20,500
2025-07-30 23:02:20,529
2025-07-30 23:02:20,550
2025-07-30 23:02:20,539
2025-07-30 23:02:20,548
2025-07-30 23:02:20,516
2025-07-30 23:02:20,470
2025-07-30 23:02:20,533
2025-07-30 23:02:20,549
2025-07-30 23:02:20,502
2025-07-30 23:02:20,521
2025-07-30 23:02:20,559
2025-07-30 23:02:20,547
2025-07-30 23:02:20,489
2025-07-30 23:02:20,537
2025-07-30 23:02:20,497
2025-07-30 23:02:20,485
2025-07-30 23:02:20,564
2025-07-30 23:02:20,521
2025-07-30 23:02:20,435
2025-07-30 23:02:20,499
2025-07-30 23:02:20,569
2025-07-30 23:02:20,556
2025-07-30 23:02:20,540
2025-07-30 23:02:20,504
2025-07-30 23:02:20,456
2025-07-30 23:02:20,492
2025-07-30 23:02:20,547
2025-07-30 23:02:20,484
2025-07-30 23:02:20,472
2025-07-30 23:02:20,532
2025-07-30 23:02:20,514
2025-07-30 23:02:20,516
2025-07-30 23:02:20,495
2025-07-30 23:02:20,452
2025-07-30 23:02:20,456
2025-07-30 23:02:20,517
2025-07-30 23:02:20,516
2025-07-30 23:02:20,448
2025-07-30 23:02:20,490
2025-07-30 23:02:20,617
2025-07-30 23:02:20,505
2025-07-30 23:02:20,460
2025-07-30 23:02:20,497
2025-07-30 23:02:20,486
2025-07-30 23:02:20,497
2025-07-30 23:02:20,543
2025-07-30 23:02:20,507
2025-07-30 23:02:20,476
2025-07-30 23:02:20,501
2025-07-30 23:02:20,505
2025-07-30 23:02:20,483
2025-07-30 23:02:20,494
2025-07-30 23:02:20,512
2025-07-30 23:02:20,516
2025-07-30 23:02:20,578
2025-07-30 23:02:20,518
2025-07-30 23:02:20,463
2025-07-30 23:02:20,506
2025-07-30 23:02:20,543
2025-07-30 23:02:20,483
2025-07-30 23:02:20,466
2025-07-30 23:02:20,510
2025-07-30 23:02:20,534
2025-07-30 23:02:20,494
2025-07-30 23:02:20,550
2025-07-30 23:02:20,555
2025-07-30 23:02:20,483
2025-07-30 23:02:20,514
2025-07-30 23:02:20,516
2025-07-30 23:02:20,483
2025-07-30 23:02:20,562
2025-07-30 23:02:20,577
2025-07-30 23:02:20,464
2025-07-30 23:02:20,481
2025-07-30 23:02:20,531
2025-07-30 23:02:20,528
2025-07-30 23:02:20,521
2025-07-30 23:02:20,523
2025-07-30 23:02:20,492
2025-07-30 23:02:20,527
2025-07-30 23:02:20,543
2025-07-30 23:02:20,509
2025-07-30 23:02:20,461
2025-07-30 23:02:20,588
2025-07-30 23:02:20,559
2025-07-30 23:02:20,455
2025-07-30 23:02:20,487
2025-07-30 23:02:20,562
2025-07-30 23:02:20,484
2025-07-30 23:02:20,485
2025-07-30 23:02:20,511
2025-07-30 23:02:20,487
2025-07-30 23:02:20,474
2025-07-30 23:02:20,533
2025-07-30 23:02:20,523
2025-07-30 23:02:20,464
2025-07-30 23:02:20,542
2025-07-30 23:02:20,553
2025-07-30 23:02:20,482
2025-07-30 23:02:20,560
2025-07-30 23:02:20,519
2025-07-30 23:02:20,463
2025-07-30 23:02:20,521
2025-07-30 23:02:20,538
2025-07-30 23:02:20,452
2025-07-30 23:02:20,462
2025-07-30 23:02:20,515
2025-07-30 23:02:20,485
2025-07-30 23:02:20,497
2025-07-30 23:02:20,524
2025-07-30 23:02:20,502
2025-07-30 23:02:20,456
2025-07-30 23:02:20,511
2025-07-30 23:02:20,523
2025-07-30 23:02:20,490
2025-07-30 23:02:20,573
2025-07-30 23:02:20,590
2025-07-30 23:02:20,464
2025-07-30 23:02:20,463
2025-07-30 23:02:20,474
2025-07-30 23:02:20,472
2025-07-30 23:02:20,487
2025-07-30 23:02:20,496
2025-07-30 23:02:20,467
2025-07-30 23:02:20,490
2025-07-30 23:02:20,527
2025-07-30 23:02:20,508
2025-07-30 23:02:20,487
2025-07-30 23:02:20,507
2025-07-30 23:02:20,531
2025-07-30 23:02:20,488
2025-07-30 23:02:20,554
2025-07-30 23:02:20,529
2025-07-30 23:02:20,479
2025-07-30 23:02:20,474
2025-07-30 23:02:20,494
2025-07-30 23:02:20,494
2025-07-30 23:02:20,535
2025-07-30 23:02:20,523
2025-07-30 23:02:21,478
2025-07-30 23:02:21,449
2025-07-30 23:02:21,513
2025-07-30 23:02:21,512
2025-07-30 23:02:21,472
2025-07-30 23:02:21,544
2025-07-30 23:02:21,525
2025-07-30 23:02:21,488
2025-07-30 23:02:21,528
2025-07-30 23:02:21,578
2025-07-30 23:02:21,486
2025-07-30 23:02:21,461
2025-07-30 23:02:21,540
2025-07-30 23:02:21,515
2025-07-30 23:02:21,520
2025-07-30 23:02:21,533
2025-07-30 23:02:21,498
2025-07-30 23:02:21,486
2025-07-30 23:02:21,537
2025-07-30 23:02:21,533
2025-07-30 23:02:21,484
2025-07-30 23:02:21,513
2025-07-30 23:02:21,526
2025-07-30 23:02:21,505
2025-07-30 23:02:21,552
2025-07-30 23:02:21,561
2025-07-30 23:02:21,478
2025-07-30 23:02:21,525
2025-07-30 23:02:21,586
2025-07-30 23:02:21,480
2025-07-30 23:02:21,465
2025-07-30 23:02:21,534
2025-07-30 23:02:21,515
2025-07-30 23:02:21,497
2025-07-30 23:02:21,544
2025-07-30 23:02:21,526
2025-07-30 23:02:21,526
2025-07-30 23:02:21,543
2025-07-30 23:02:21,549
2025-07-30 23:02:21,511
2025-07-30 23:02:21,564
2025-07-30 23:02:21,584
2025-07-30 23:02:21,491
2025-07-30 23:02:21,500
2025-07-30 23:02:21,560
2025-07-30 23:02:21,512
2025-07-30 23:02:21,496
2025-07-30 23:02:21,556
2025-07-30 23:02:21,544
2025-07-30 23:02:21,516
2025-07-30 23:02:21,550
2025-07-30 23:02:21,537
2025-07-30 23:02:21,523
2025-07-30 23:02:21,589
2025-07-30 23:02:21,566
2025-07-30 23:02:21,512
2025-07-30 23:02:21,550
2025-07-30 23:02:21,582
2025-07-30 23:02:21,521
2025-07-30 23:02:21,533
2025-07-30 23:02:21,562
2025-07-30 23:02:21,531
2025-07-30 23:02:21,505
2025-07-30 23:02:21,562
2025-07-30 23:02:21,550
2025-07-30 23:02:21,513
2025-07-30 23:02:21,553
2025-07-30 23:02:21,548
2025-07-30 23:02:21,520
2025-07-30 23:02:21,586
2025-07-30 23:02:21,588
2025-07-30 23:02:21,585
2025-07-30 23:02:21,535
2025-07-30 23:02:21,549
2025-07-30 23:02:21,500
2025-07-30 23:02:21,523
2025-07-30 23:02:21,585
2025-07-30 23:02:21,568
2025-07-30 23:02:21,559
2025-07-30 23:02:21,575
2025-07-30 23:02:21,559
2025-07-30 23:02:21,530
2025-07-30 23:02:21,598
2025-07-30 23:02:21,610
2025-07-30 23:02:21,547
2025-07-30 23:02:21,593
2025-07-30 23:02:21,679
2025-07-30 23:02:21,564
2025-07-30 23:02:21,559
2025-07-30 23:02:21,580
2025-07-30 23:02:21,548
2025-07-30 23:02:21,591
2025-07-30 23:02:21,607
2025-07-30 23:02:21,564
2025-07-30 23:02:21,570
2025-07-30 23:02:21,614
2025-07-30 23:02:21,609
2025-07-30 23:02:21,585
2025-07-30 23:02:21,635
2025-07-30 23:02:21,624
2025-07-30 23:02:21,558
2025-07-30 23:02:21,565
2025-07-30 23:02:21,598
2025-07-30 23:02:21,551
2025-07-30 23:02:21,593
2025-07-30 23:02:21,619
2025-07-30 23:02:21,591
2025-07-30 23:02:21,585
2025-07-30 23:02:21,610
2025-07-30 23:02:21,583
2025-07-30 23:02:21,566
2025-07-30 23:02:21,628
2025-07-30 23:02:21,629
2025-07-30 23:02:21,550
2025-07-30 23:02:21,589
2025-07-30 23:02:21,630
2025-07-30 23:02:21,568
2025-07-30 23:02:21,590
2025-07-30 23:02:21,591
2025-07-30 23:02:21,550
2025-07-30 23:02:21,566
2025-07-30 23:02:21,604
2025-07-30 23:02:21,556
2025-07-30 23:02:21,549
2025-07-30 23:02:21,587
2025-07-30 23:02:21,571
2025-07-30 23:02:21,607
2025-07-30 23:02:21,592
2025-07-30 23:02:21,567
2025-07-30 23:02:21,541
2025-07-30 23:02:21,599
2025-07-30 23:02:21,588
2025-07-30 23:02:21,573
2025-07-30 23:02:21,591
2025-07-30 23:02:21,580
2025-07-30 23:02:21,541
2025-07-30 23:02:21,561
2025-07-30 23:02:21,587
2025-07-30 23:02:21,549
2025-07-30 23:02:21,541
2025-07-30 23:02:21,587
2025-07-30 23:02:21,548
2025-07-30 23:02:21,525
2025-07-30 23:02:21,579
2025-07-30 23:02:21,584
2025-07-30 23:02:21,595
2025-07-30 23:02:21,541
2025-07-30 23:02:21,550
2025-07-30 23:02:21,524
2025-07-30 23:02:21,608
2025-07-30 23:02:21,559
2025-07-30 23:02:21,511
2025-07-30 23:02:21,509
2025-07-30 23:02:21,554
2025-07-30 23:02:21,527
2025-07-30 23:02:21,512
2025-07-30 23:02:21,554
2025-07-30 23:02:21,553
2025-07-30 23:02:21,498
2025-07-30 23:02:21,538
2025-07-30 23:02:21,557
2025-07-30 23:02:21,522
2025-07-30 23:02:21,517
2025-07-30 23:02:21,518
2025-07-30 23:02:21,467
2025-07-30 23:02:21,491
2025-07-30 23:02:21,535
2025-07-30 23:02:21,480
2025-07-30 23:02:21,481
2025-07-30 23:02:21,530
2025-07-30 23:02:21,489
2025-07-30 23:02:21,491
2025-07-30 23:02:21,529
2025-07-30 23:02:21,514
2025-07-30 23:02:21,493
2025-07-30 23:02:21,535
2025-07-30 23:02:21,520
2025-07-30 23:02:21,487
2025-07-30 23:02:21,509
2025-07-30 23:02:21,520
2025-07-30 23:02:21,478
2025-07-30 23:02:21,481
2025-07-30 23:02:21,507
2025-07-30 23:02:21,462
2025-07-30 23:02:21,460
2025-07-30 23:02:21,498
2025-07-30 23:02:21,478
2025-07-30 23:02:21,475
2025-07-30 23:02:21,505
2025-07-30 23:02:21,490
2025-07-30 23:02:22,457
2025-07-30 23:02:22,505
2025-07-30 23:02:22,503
2025-07-30 23:02:22,451
2025-07-30 23:02:22,476
2025-07-30 23:02:22,486
2025-07-30 23:02:22,429
2025-07-30 23:02:22,463
2025-07-30 23:02:22,502
2025-07-30 23:02:22,460
2025-07-30 23:02:22,479
2025-07-30 23:02:22,501
2025-07-30 23:02:22,463
2025-07-30 23:02:22,462
2025-07-30 23:02:22,506
2025-07-30 23:02:22,482
2025-07-30 23:02:22,480
2025-07-30 23:02:22,545
2025-07-30 23:02:22,515
2025-07-30 23:02:22,446
2025-07-30 23:02:22,491
2025-07-30 23:02:22,502
2025-07-30 23:02:22,454
2025-07-30 23:02:22,457
2025-07-30 23:02:22,500
2025-07-30 23:02:22,465
2025-07-30 23:02:22,460
2025-07-30 23:02:22,499
2025-07-30 23:02:22,464
2025-07-30 23:02:22,452
2025-07-30 23:02:22,499
2025-07-30 23:02:22,502
2025-07-30 23:02:22,480
2025-07-30 23:02:22,503
2025-07-30 23:02:22,492
2025-07-30 23:02:22,429
2025-07-30 23:02:22,471
2025-07-30 23:02:22,473
2025-07-30 23:02:22,466
2025-07-30 23:02:22,481
2025-07-30 23:02:22,498
2025-07-30 23:02:22,445
2025-07-30 23:02:22,439
2025-07-30 23:02:22,484
2025-07-30 23:02:22,454
2025-07-30 23:02:22,428
2025-07-30 23:02:22,510
2025-07-30 23:02:22,493
2025-07-30 23:02:22,446
2025-07-30 23:02:22,465
2025-07-30 23:02:22,478
2025-07-30 23:02:22,422
2025-07-30 23:02:22,456
2025-07-30 23:02:22,475
2025-07-30 23:02:22,446
2025-07-30 23:02:22,460
2025-07-30 23:02:22,495
2025-07-30 23:02:22,453
2025-07-30 23:02:22,448
2025-07-30 23:02:22,520
2025-07-30 23:02:22,463
2025-07-30 23:02:22,412
2025-07-30 23:02:22,470
2025-07-30 23:02:22,470
2025-07-30 23:02:22,433
2025-07-30 23:02:22,474
2025-07-30 23:02:22,485
2025-07-30 23:02:22,436
2025-07-30 23:02:22,466
2025-07-30 23:02:22,492
2025-07-30 23:02:22,499
2025-07-30 23:02:22,460
2025-07-30 23:02:22,476
2025-07-30 23:02:22,472
2025-07-30 23:02:22,454
2025-07-30 23:02:22,489
2025-07-30 23:02:22,449
2025-07-30 23:02:22,440
2025-07-30 23:02:22,516
2025-07-30 23:02:22,476
2025-07-30 23:02:22,435
2025-07-30 23:02:22,486
2025-07-30 23:02:22,491
2025-07-30 23:02:22,455
2025-07-30 23:02:22,486
2025-07-30 23:02:22,511
2025-07-30 23:02:22,463
2025-07-30 23:02:22,467
2025-07-30 23:02:22,513
2025-07-30 23:02:22,475
2025-07-30 23:02:22,455
2025-07-30 23:02:22,520
2025-07-30 23:02:22,495
2025-07-30 23:02:22,465
2025-07-30 23:02:22,500
2025-07-30 23:02:22,498
2025-07-30 23:02:22,460
2025-07-30 23:02:22,504
2025-07-30 23:02:22,543
2025-07-30 23:02:22,470
2025-07-30 23:02:22,474
2025-07-30 23:02:22,490
2025-07-30 23:02:22,460
2025-07-30 23:02:22,487
2025-07-30 23:02:22,523
2025-07-30 23:02:22,491
2025-07-30 23:02:22,466
2025-07-30 23:02:22,507
2025-07-30 23:02:22,496
2025-07-30 23:02:22,468
2025-07-30 23:02:22,502
2025-07-30 23:02:22,483
2025-07-30 23:02:22,461
2025-07-30 23:02:22,488
2025-07-30 23:02:22,518
2025-07-30 23:02:22,477
2025-07-30 23:02:22,491
2025-07-30 23:02:22,523
2025-07-30 23:02:22,499
2025-07-30 23:02:22,479
2025-07-30 23:02:22,517
2025-07-30 23:02:22,481
2025-07-30 23:02:22,465
2025-07-30 23:02:22,511
2025-07-30 23:02:22,525
2025-07-30 23:02:22,476
2025-07-30 23:02:22,502
2025-07-30 23:02:22,490
2025-07-30 23:02:22,458
2025-07-30 23:02:22,504
2025-07-30 23:02:22,498
2025-07-30 23:02:22,462
2025-07-30 23:02:22,495
2025-07-30 23:02:22,530
2025-07-30 23:02:22,478
2025-07-30 23:02:22,491
2025-07-30 23:02:22,527
2025-07-30 23:02:22,476
2025-07-30 23:02:22,469
2025-07-30 23:02:22,517
2025-07-30 23:02:22,490
2025-07-30 23:02:22,465
2025-07-30 23:02:22,506
2025-07-30 23:02:22,500
2025-07-30 23:02:22,453
2025-07-30 23:02:22,509
2025-07-30 23:02:22,536
2025-07-30 23:02:22,482
2025-07-30 23:02:22,490
2025-07-30 23:02:22,512
2025-07-30 23:02:22,488
2025-07-30 23:02:22,489
2025-07-30 23:02:22,522
2025-07-30 23:02:22,489
2025-07-30 23:02:22,468
2025-07-30 23:02:22,528
2025-07-30 23:02:22,532
2025-07-30 23:02:22,472
2025-07-30 23:02:22,505
2025-07-30 23:02:22,502
2025-07-30 23:02:22,470
2025-07-30 23:02:22,513
2025-07-30 23:02:22,515
2025-07-30 23:02:22,480
2025-07-30 23:02:22,513
2025-07-30 23:02:22,534
2025-07-30 23:02:22,482
2025-07-30 23:02:22,482
2025-07-30 23:02:22,532
2025-07-30 23:02:22,518
2025-07-30 23:02:22,493
2025-07-30 23:02:22,529
2025-07-30 23:02:22,506
2025-07-30 23:02:22,469
2025-07-30 23:02:22,520
2025-07-30 23:02:22,519
2025-07-30 23:02:22,480
2025-07-30 23:02:22,519
2025-07-30 23:02:22,549
2025-07-30 23:02:22,508
2025-07-30 23:02:22,515
2025-07-30 23:02:22,554
2025-07-30 23:02:22,509
2025-07-30 23:02:22,520
2025-07-30 23:02:22,554
2025-07-30 23:02:22,523
2025-07-30 23:02:22,523
2025-07-30 23:02:22,537
2025-07-30 23:02:22,505
2025-07-30 23:02:22,475
2025-07-30 23:02:22,528
2025-07-30 23:02:22,537
2025-07-30 23:02:22,496
2025-07-30 23:02:22,524
2025-07-30 23:02:23,538
2025-07-30 23:02:23,508
2025-07-30 23:02:23,513
2025-07-30 23:02:23,561
2025-07-30 23:02:23,529
2025-07-30 23:02:23,510
2025-07-30 23:02:23,541
2025-07-30 23:02:23,511
2025-07-30 23:02:23,491
2025-07-30 23:02:23,538
2025-07-30 23:02:23,522
2025-07-30 23:02:23,481
2025-07-30 23:02:23,527
2025-07-30 23:02:23,530
2025-07-30 23:02:23,492
2025-07-30 23:02:23,518
2025-07-30 23:02:23,541
2025-07-30 23:02:23,496
2025-07-30 23:02:23,519
2025-07-30 23:02:23,556
2025-07-30 23:02:23,502
2025-07-30 23:02:23,509
2025-07-30 23:02:23,572
2025-07-30 23:02:23,514
2025-07-30 23:02:23,475
2025-07-30 23:02:23,528
2025-07-30 23:02:23,530
2025-07-30 23:02:23,488
2025-07-30 23:02:23,540
2025-07-30 23:02:23,547
2025-07-30 23:02:23,499
2025-07-30 23:02:23,526
2025-07-30 23:02:23,561
2025-07-30 23:02:23,548
2025-07-30 23:02:23,601
2025-07-30 23:02:23,651
2025-07-30 23:02:23,636
2025-07-30 23:02:23,656
2025-07-30 23:02:23,722
2025-07-30 23:02:23,717
2025-07-30 23:02:23,695
2025-07-30 23:02:23,745
2025-07-30 23:02:23,737
2025-07-30 23:02:23,712
2025-07-30 23:02:23,742
2025-07-30 23:02:23,760
2025-07-30 23:02:23,723
2025-07-30 23:02:23,765
2025-07-30 23:02:23,799
2025-07-30 23:02:23,733
2025-07-30 23:02:23,734
2025-07-30 23:02:23,767
2025-07-30 23:02:23,745
2025-07-30 23:02:23,724
2025-07-30 23:02:23,769
2025-07-30 23:02:23,753
2025-07-30 23:02:23,718
2025-07-30 23:02:23,759
2025-07-30 23:02:23,758
2025-07-30 23:02:23,713
2025-07-30 23:02:23,770
2025-07-30 23:02:23,796
2025-07-30 23:02:23,746
2025-07-30 23:02:23,763
2025-07-30 23:02:23,790
2025-07-30 23:02:23,747
2025-07-30 23:02:23,748
2025-07-30 23:02:23,778
2025-07-30 23:02:23,738
2025-07-30 23:02:23,724
2025-07-30 23:02:23,764
2025-07-30 23:02:23,747
2025-07-30 23:02:23,715
2025-07-30 23:02:23,761
2025-07-30 23:02:23,773
2025-07-30 23:02:23,703
2025-07-30 23:02:23,751
2025-07-30 23:02:23,774
2025-07-30 23:02:23,708
2025-07-30 23:02:23,723
2025-07-30 23:02:23,757
2025-07-30 23:02:23,724
2025-07-30 23:02:23,720
2025-07-30 23:02:23,787
2025-07-30 23:02:23,733
2025-07-30 23:02:23,692
2025-07-30 23:02:23,734
2025-07-30 23:02:23,723
2025-07-30 23:02:23,693
2025-07-30 23:02:23,736
2025-07-30 23:02:23,739
2025-07-30 23:02:23,691
2025-07-30 23:02:23,715
2025-07-30 23:02:23,724
2025-07-30 23:02:23,709
2025-07-30 23:02:23,714
2025-07-30 23:02:23,738
2025-07-30 23:02:23,712
2025-07-30 23:02:23,691
2025-07-30 23:02:23,732
2025-07-30 23:02:23,706
2025-07-30 23:02:23,685
2025-07-30 23:02:23,729
2025-07-30 23:02:23,717
2025-07-30 23:02:23,677
2025-07-30 23:02:23,716
2025-07-30 23:02:23,712
2025-07-30 23:02:23,653
2025-07-30 23:02:23,698
2025-07-30 23:02:23,735
2025-07-30 23:02:23,677
2025-07-30 23:02:23,685
2025-07-30 23:02:23,711
2025-07-30 23:02:23,670
2025-07-30 23:02:23,662
2025-07-30 23:02:23,702
2025-07-30 23:02:23,667
2025-07-30 23:02:23,646
2025-07-30 23:02:23,690
2025-07-30 23:02:23,687
2025-07-30 23:02:23,633
2025-07-30 23:02:23,665
2025-07-30 23:02:23,674
2025-07-30 23:02:23,632
2025-07-30 23:02:23,681
2025-07-30 23:02:23,698
2025-07-30 23:02:23,636
2025-07-30 23:02:23,626
2025-07-30 23:02:23,669
2025-07-30 23:02:23,633
2025-07-30 23:02:23,626
2025-07-30 23:02:23,669
2025-07-30 23:02:23,648
2025-07-30 23:02:23,613
2025-07-30 23:02:23,655
2025-07-30 23:02:23,637
2025-07-30 23:02:23,606
2025-07-30 23:02:23,638
2025-07-30 23:02:23,650
2025-07-30 23:02:23,609
2025-07-30 23:02:23,636
2025-07-30 23:02:23,656
2025-07-30 23:02:23,628
2025-07-30 23:02:23,602
2025-07-30 23:02:23,645
2025-07-30 23:02:23,599
2025-07-30 23:02:23,593
2025-07-30 23:02:23,642
2025-07-30 23:02:23,609
2025-07-30 23:02:23,589
2025-07-30 23:02:23,637
2025-07-30 23:02:23,619
2025-07-30 23:02:23,579
2025-07-30 23:02:23,624
2025-07-30 23:02:23,645
2025-07-30 23:02:23,595
2025-07-30 23:02:23,615
2025-07-30 23:02:23,656
2025-07-30 23:02:23,611
2025-07-30 23:02:23,637
2025-07-30 23:02:23,646
2025-07-30 23:02:23,603
2025-07-30 23:02:23,574
2025-07-30 23:02:23,628
2025-07-30 23:02:23,614
2025-07-30 23:02:23,581
2025-07-30 23:02:23,615
2025-07-30 23:02:23,618
2025-07-30 23:02:23,584
2025-07-30 23:02:23,625
2025-07-30 23:02:23,637
2025-07-30 23:02:23,588
2025-07-30 23:02:23,606
2025-07-30 23:02:23,634
2025-07-30 23:02:23,591
2025-07-30 23:02:23,593
2025-07-30 23:02:23,629
2025-07-30 23:02:23,584
2025-07-30 23:02:23,567
2025-07-30 23:02:23,613
2025-07-30 23:02:23,601
2025-07-30 23:02:23,568
2025-07-30 23:02:23,601
2025-07-30 23:02:23,608
2025-07-30 23:02:23,586
2025-07-30 23:02:23,601
2025-07-30 23:02:23,608
2025-07-30 23:02:23,574
2025-07-30 23:02:23,598
2025-07-30 23:02:23,619
2025-07-30 23:02:24,577
2025-07-30 23:02:24,570
2025-07-30 23:02:24,608
2025-07-30 23:02:24,577
2025-07-30 23:02:24,557
2025-07-30 23:02:24,610
2025-07-30 23:02:24,605
2025-07-30 23:02:24,591
2025-07-30 23:02:24,634
2025-07-30 23:02:24,653
2025-07-30 23:02:24,618
2025-07-30 23:02:24,655
2025-07-30 23:02:24,689
2025-07-30 23:02:24,641
2025-07-30 23:02:24,656
2025-07-30 23:02:24,679
2025-07-30 23:02:24,659
2025-07-30 23:02:24,684
2025-07-30 23:02:24,698
2025-07-30 23:02:24,657
2025-07-30 23:02:24,636
2025-07-30 23:02:24,695
2025-07-30 23:02:24,691
2025-07-30 23:02:24,645
2025-07-30 23:02:24,676
2025-07-30 23:02:24,676
2025-07-30 23:02:24,629
2025-07-30 23:02:24,680
2025-07-30 23:02:24,720
2025-07-30 23:02:24,660
2025-07-30 23:02:24,653
2025-07-30 23:02:24,684
2025-07-30 23:02:24,634
2025-07-30 23:02:24,648
2025-07-30 23:02:24,685
2025-07-30 23:02:24,646
2025-07-30 23:02:24,626
2025-07-30 23:02:24,678
2025-07-30 23:02:24,660
2025-07-30 23:02:24,616
2025-07-30 23:02:24,661
2025-07-30 23:02:24,669
2025-07-30 23:02:24,636
2025-07-30 23:02:24,651
2025-07-30 23:02:24,659
2025-07-30 23:02:24,616
2025-07-30 23:02:24,614
2025-07-30 23:02:24,651
2025-07-30 23:02:24,610
2025-07-30 23:02:24,603
2025-07-30 23:02:24,644
2025-07-30 23:02:24,624
2025-07-30 23:02:24,601
2025-07-30 23:02:24,660
2025-07-30 23:02:24,626
2025-07-30 23:02:24,574
2025-07-30 23:02:24,615
2025-07-30 23:02:24,616
2025-07-30 23:02:24,583
2025-07-30 23:02:24,597
2025-07-30 23:02:24,618
2025-07-30 23:02:24,575
2025-07-30 23:02:24,583
2025-07-30 23:02:24,622
2025-07-30 23:02:24,587
2025-07-30 23:02:24,580
2025-07-30 23:02:24,621
2025-07-30 23:02:24,595
2025-07-30 23:02:24,551
2025-07-30 23:02:24,591
2025-07-30 23:02:24,599
2025-07-30 23:02:24,556
2025-07-30 23:02:24,576
2025-07-30 23:02:24,597
2025-07-30 23:02:24,549
2025-07-30 23:02:24,570
2025-07-30 23:02:24,598
2025-07-30 23:02:24,549
2025-07-30 23:02:24,560
2025-07-30 23:02:24,589
2025-07-30 23:02:24,553
2025-07-30 23:02:24,541
2025-07-30 23:02:24,570
2025-07-30 23:02:24,555
2025-07-30 23:02:24,534
2025-07-30 23:02:24,576
2025-07-30 23:02:24,579
2025-07-30 23:02:24,531
2025-07-30 23:02:24,555
2025-07-30 23:02:24,563
2025-07-30 23:02:24,515
2025-07-30 23:02:24,533
2025-07-30 23:02:24,568
2025-07-30 23:02:24,528
2025-07-30 23:02:24,529
2025-07-30 23:02:24,568
2025-07-30 23:02:24,542
2025-07-30 23:02:24,521
2025-07-30 23:02:24,571
2025-07-30 23:02:24,551
2025-07-30 23:02:24,498
2025-07-30 23:02:24,569
2025-07-30 23:02:24,565
2025-07-30 23:02:24,488
2025-07-30 23:02:24,517
2025-07-30 23:02:24,543
2025-07-30 23:02:24,495
2025-07-30 23:02:24,520
2025-07-30 23:02:24,564
2025-07-30 23:02:24,511
2025-07-30 23:02:24,523
2025-07-30 23:02:24,556
2025-07-30 23:02:24,512
2025-07-30 23:02:24,501
2025-07-30 23:02:24,553
2025-07-30 23:02:24,523
2025-07-30 23:02:24,507
2025-07-30 23:02:24,538
2025-07-30 23:02:24,534
2025-07-30 23:02:24,495
2025-07-30 23:02:24,536
2025-07-30 23:02:24,557
2025-07-30 23:02:24,493
2025-07-30 23:02:24,513
2025-07-30 23:02:24,552
2025-07-30 23:02:24,511
2025-07-30 23:02:24,505
2025-07-30 23:02:24,537
2025-07-30 23:02:24,504
2025-07-30 23:02:24,487
2025-07-30 23:02:24,529
2025-07-30 23:02:24,516
2025-07-30 23:02:24,482
2025-07-30 23:02:24,533
2025-07-30 23:02:24,525
2025-07-30 23:02:24,475
2025-07-30 23:02:24,508
2025-07-30 23:02:24,537
2025-07-30 23:02:24,476
2025-07-30 23:02:24,494
2025-07-30 23:02:24,533
2025-07-30 23:02:24,477
2025-07-30 23:02:24,491
2025-07-30 23:02:24,528
2025-07-30 23:02:24,509
2025-07-30 23:02:24,471
2025-07-30 23:02:24,521
2025-07-30 23:02:24,512
2025-07-30 23:02:24,469
2025-07-30 23:02:24,509
2025-07-30 23:02:24,517
2025-07-30 23:02:24,474
2025-07-30 23:02:24,525
2025-07-30 23:02:24,537
2025-07-30 23:02:24,482
2025-07-30 23:02:24,502
2025-07-30 23:02:24,522
2025-07-30 23:02:24,469
2025-07-30 23:02:24,469
2025-07-30 23:02:24,508
2025-07-30 23:02:24,476
2025-07-30 23:02:24,451
2025-07-30 23:02:24,514
2025-07-30 23:02:24,492
2025-07-30 23:02:24,439
2025-07-30 23:02:24,479
2025-07-30 23:02:24,490
2025-07-30 23:02:24,457
2025-07-30 23:02:24,494
2025-07-30 23:02:24,508
2025-07-30 23:02:24,467
2025-07-30 23:02:24,454
2025-07-30 23:02:24,489
2025-07-30 23:02:24,448
2025-07-30 23:02:24,455
2025-07-30 23:02:24,495
2025-07-30 23:02:24,461
2025-07-30 23:02:24,442
2025-07-30 23:02:24,492
2025-07-30 23:02:24,477
2025-07-30 23:02:24,438
2025-07-30 23:02:24,466
2025-07-30 23:02:24,505
2025-07-30 23:02:24,436
2025-07-30 23:02:24,470
2025-07-30 23:02:24,485
2025-07-30 23:02:24,432
2025-07-30 23:02:24,445
2025-07-30 23:02:24,486
2025-07-30 23:02:24,447
2025-07-30 23:02:24,420
2025-07-30 23:02:24,467
2025-07-30 23:02:24,446
2025-07-30 23:02:24,416
2025-07-30 23:02:25,472
2025-07-30 23:02:25,467
2025-07-30 23:02:25,426
2025-07-30 23:02:25,462
2025-07-30 23:02:25,475
2025-07-30 23:02:25,431
2025-07-30 23:02:25,460
2025-07-30 23:02:25,480
2025-07-30 23:02:25,423
2025-07-30 23:02:25,423
2025-07-30 23:02:25,466
2025-07-30 23:02:25,435
2025-07-30 23:02:25,420
2025-07-30 23:02:25,462
2025-07-30 23:02:25,456
2025-07-30 23:02:25,421
2025-07-30 23:02:25,466
2025-07-30 23:02:25,457
2025-07-30 23:02:25,419
2025-07-30 23:02:25,481
2025-07-30 23:02:25,478
2025-07-30 23:02:25,427
2025-07-30 23:02:25,446
2025-07-30 23:02:25,484
2025-07-30 23:02:25,438
2025-07-30 23:02:25,422
2025-07-30 23:02:25,477
2025-07-30 23:02:25,434
2025-07-30 23:02:25,412
2025-07-30 23:02:25,462
2025-07-30 23:02:25,455
2025-07-30 23:02:25,420
2025-07-30 23:02:25,460
2025-07-30 23:02:25,463
2025-07-30 23:02:25,428
2025-07-30 23:02:25,476
2025-07-30 23:02:25,481
2025-07-30 23:02:25,427
2025-07-30 23:02:25,442
2025-07-30 23:02:25,487
2025-07-30 23:02:25,423
2025-07-30 23:02:25,413
2025-07-30 23:02:25,454
2025-07-30 23:02:25,426
2025-07-30 23:02:25,410
2025-07-30 23:02:25,478
2025-07-30 23:02:25,464
2025-07-30 23:02:25,400
2025-07-30 23:02:25,448
2025-07-30 23:02:25,461
2025-07-30 23:02:25,420
2025-07-30 23:02:25,447
2025-07-30 23:02:25,457
2025-07-30 23:02:25,417
2025-07-30 23:02:25,438
2025-07-30 23:02:25,463
2025-07-30 23:02:25,418
2025-07-30 23:02:25,420
2025-07-30 23:02:25,463
2025-07-30 23:02:25,433
2025-07-30 23:02:25,410
2025-07-30 23:02:25,463
2025-07-30 23:02:25,459
2025-07-30 23:02:25,397
2025-07-30 23:02:25,443
2025-07-30 23:02:25,458
2025-07-30 23:02:25,428
2025-07-30 23:02:25,444
2025-07-30 23:02:25,462
2025-07-30 23:02:25,411
2025-07-30 23:02:25,428
2025-07-30 23:02:25,457
2025-07-30 23:02:25,419
2025-07-30 23:02:25,410
2025-07-30 23:02:25,461
2025-07-30 23:02:25,436
2025-07-30 23:02:25,410
2025-07-30 23:02:25,468
2025-07-30 23:02:25,457
2025-07-30 23:02:25,409
2025-07-30 23:02:25,454
2025-07-30 23:02:25,470
2025-07-30 23:02:25,417
2025-07-30 23:02:25,446
2025-07-30 23:02:25,466
2025-07-30 23:02:25,416
2025-07-30 23:02:25,428
2025-07-30 23:02:25,464
2025-07-30 23:02:25,431
2025-07-30 23:02:25,432
2025-07-30 23:02:25,459
2025-07-30 23:02:25,441
2025-07-30 23:02:25,415
2025-07-30 23:02:25,487
2025-07-30 23:02:25,454
2025-07-30 23:02:25,414
2025-07-30 23:02:25,465
2025-07-30 23:02:25,474
2025-07-30 23:02:25,413
2025-07-30 23:02:25,434
2025-07-30 23:02:25,463
2025-07-30 23:02:25,421
2025-07-30 23:02:25,436
2025-07-30 23:02:25,472
2025-07-30 23:02:25,428
2025-07-30 23:02:25,426
2025-07-30 23:02:25,477
2025-07-30 23:02:25,458
2025-07-30 23:02:25,425
2025-07-30 23:02:25,472
2025-07-30 23:02:25,476
2025-07-30 23:02:25,435
2025-07-30 23:02:25,458
2025-07-30 23:02:25,471
2025-07-30 23:02:25,423
2025-07-30 23:02:25,460
2025-07-30 23:02:25,485
2025-07-30 23:02:25,431
2025-07-30 23:02:25,437
2025-07-30 23:02:25,480
2025-07-30 23:02:25,443
2025-07-30 23:02:25,433
2025-07-30 23:02:25,475
2025-07-30 23:02:25,458
2025-07-30 23:02:25,438
2025-07-30 23:02:25,480
2025-07-30 23:02:25,485
2025-07-30 23:02:25,421
2025-07-30 23:02:25,466
2025-07-30 23:02:25,479
2025-07-30 23:02:25,421
2025-07-30 23:02:25,454
2025-07-30 23:02:25,493
2025-07-30 23:02:25,443
2025-07-30 23:02:25,439
2025-07-30 23:02:25,483
2025-07-30 23:02:25,445
2025-07-30 23:02:25,424
2025-07-30 23:02:25,479
2025-07-30 23:02:25,459
2025-07-30 23:02:25,425
2025-07-30 23:02:25,481
2025-07-30 23:02:25,474
2025-07-30 23:02:25,443
2025-07-30 23:02:25,458
2025-07-30 23:02:25,477
2025-07-30 23:02:25,433
2025-07-30 23:02:25,459
2025-07-30 23:02:25,482
2025-07-30 23:02:25,419
2025-07-30 23:02:25,416
2025-07-30 23:02:25,468
2025-07-30 23:02:25,447
2025-07-30 23:02:25,425
2025-07-30 23:02:25,479
2025-07-30 23:02:25,462
2025-07-30 23:02:25,418
2025-07-30 23:02:25,476
2025-07-30 23:02:25,467
2025-07-30 23:02:25,425
2025-07-30 23:02:25,438
2025-07-30 23:02:25,467
2025-07-30 23:02:25,436
2025-07-30 23:02:25,440
2025-07-30 23:02:25,482
2025-07-30 23:02:25,431
2025-07-30 23:02:25,433
2025-07-30 23:02:25,476
2025-07-30 23:02:25,455
2025-07-30 23:02:25,432
2025-07-30 23:02:25,477
2025-07-30 23:02:25,470
2025-07-30 23:02:25,440
2025-07-30 23:02:25,488
2025-07-30 23:02:25,498
2025-07-30 23:02:25,436
2025-07-30 23:02:25,453
2025-07-30 23:02:25,485
2025-07-30 23:02:25,448
2025-07-30 23:02:25,454
2025-07-30 23:02:25,481
2025-07-30 23:02:25,439
2025-07-30 23:02:25,436
2025-07-30 23:02:25,483
2025-07-30 23:02:25,454
2025-07-30 23:02:25,427
2025-07-30 23:02:25,480
2025-07-30 23:02:25,471
2025-07-30 23:02:25,452
2025-07-30 23:02:25,501
2025-07-30 23:02:25,467
2025-07-30 23:02:26,431
2025-07-30 23:02:26,463
2025-07-30 23:02:26,487
2025-07-30 23:02:26,449
2025-07-30 23:02:26,451
2025-07-30 23:02:26,475
2025-07-30 23:02:26,440
2025-07-30 23:02:26,442
2025-07-30 23:02:26,492
2025-07-30 23:02:26,456
2025-07-30 23:02:26,428
2025-07-30 23:02:26,485
2025-07-30 23:02:26,460
2025-07-30 23:02:26,429
2025-07-30 23:02:26,472
2025-07-30 23:02:26,468
2025-07-30 23:02:26,440
2025-07-30 23:02:26,457
2025-07-30 23:02:26,479
2025-07-30 23:02:26,435
2025-07-30 23:02:26,442
2025-07-30 23:02:26,480
2025-07-30 23:02:26,446
2025-07-30 23:02:26,426
2025-07-30 23:02:26,468
2025-07-30 23:02:26,446
2025-07-30 23:02:26,426
2025-07-30 23:02:26,480
2025-07-30 23:02:26,478
2025-07-30 23:02:26,436
2025-07-30 23:02:26,475
2025-07-30 23:02:26,454
2025-07-30 23:02:26,424
2025-07-30 23:02:26,450
2025-07-30 23:02:26,470
2025-07-30 23:02:26,423
2025-07-30 23:02:26,431
2025-07-30 23:02:26,475
2025-07-30 23:02:26,442
2025-07-30 23:02:26,429
2025-07-30 23:02:26,472
2025-07-30 23:02:26,440
2025-07-30 23:02:26,418
2025-07-30 23:02:26,479
2025-07-30 23:02:26,450
2025-07-30 23:02:26,416
2025-07-30 23:02:26,449
2025-07-30 23:02:26,469
2025-07-30 23:02:26,418
2025-07-30 23:02:26,439
2025-07-30 23:02:26,469
2025-07-30 23:02:26,423
2025-07-30 23:02:26,426
2025-07-30 23:02:26,469
2025-07-30 23:02:26,434
2025-07-30 23:02:26,416
2025-07-30 23:02:26,466
2025-07-30 23:02:26,439
2025-07-30 23:02:26,412
2025-07-30 23:02:26,459
2025-07-30 23:02:26,461
2025-07-30 23:02:26,407
2025-07-30 23:02:26,448
2025-07-30 23:02:26,464
2025-07-30 23:02:26,420
2025-07-30 23:02:26,435
2025-07-30 23:02:26,476
2025-07-30 23:02:26,446
2025-07-30 23:02:26,428
2025-07-30 23:02:26,467
2025-07-30 23:02:26,425
2025-07-30 23:02:26,412
2025-07-30 23:02:26,475
2025-07-30 23:02:26,464
2025-07-30 23:02:26,428
2025-07-30 23:02:26,454
2025-07-30 23:02:26,442
2025-07-30 23:02:26,417
2025-07-30 23:02:26,452
2025-07-30 23:02:26,471
2025-07-30 23:02:26,426
2025-07-30 23:02:26,440
2025-07-30 23:02:26,468
2025-07-30 23:02:26,422
2025-07-30 23:02:26,423
2025-07-30 23:02:26,484
2025-07-30 23:02:26,454
2025-07-30 23:02:26,424
2025-07-30 23:02:26,474
2025-07-30 23:02:26,454
2025-07-30 23:02:26,424
2025-07-30 23:02:26,463
2025-07-30 23:02:26,466
2025-07-30 23:02:26,412
2025-07-30 23:02:26,457
2025-07-30 23:02:26,477
2025-07-30 23:02:26,427
2025-07-30 23:02:26,445
2025-07-30 23:02:26,476
2025-07-30 23:02:26,430
2025-07-30 23:02:26,434
2025-07-30 23:02:26,481
2025-07-30 23:02:26,444
2025-07-30 23:02:26,440
2025-07-30 23:02:26,482
2025-07-30 23:02:26,461
2025-07-30 23:02:26,426
2025-07-30 23:02:26,457
2025-07-30 23:02:26,468
2025-07-30 23:02:26,417
2025-07-30 23:02:26,449
2025-07-30 23:02:26,470
2025-07-30 23:02:26,424
2025-07-30 23:02:26,444
2025-07-30 23:02:26,482
2025-07-30 23:02:26,437
2025-07-30 23:02:26,435
2025-07-30 23:02:26,487
2025-07-30 23:02:26,463
2025-07-30 23:02:26,438
2025-07-30 23:02:26,477
2025-07-30 23:02:26,466
2025-07-30 23:02:26,406
2025-07-30 23:02:26,463
2025-07-30 23:02:26,471
2025-07-30 23:02:26,416
2025-07-30 23:02:26,450
2025-07-30 23:02:26,480
2025-07-30 23:02:26,429
2025-07-30 23:02:26,442
2025-07-30 23:02:26,490
2025-07-30 23:02:26,438
2025-07-30 23:02:26,438
2025-07-30 23:02:26,474
2025-07-30 23:02:26,442
2025-07-30 23:02:26,417
2025-07-30 23:02:26,473
2025-07-30 23:02:26,459
2025-07-30 23:02:26,412
2025-07-30 23:02:26,452
2025-07-30 23:02:26,469
2025-07-30 23:02:26,429
2025-07-30 23:02:26,439
2025-07-30 23:02:26,477
2025-07-30 23:02:26,429
2025-07-30 23:02:26,440
2025-07-30 23:02:26,474
2025-07-30 23:02:26,463
2025-07-30 23:02:26,435
2025-07-30 23:02:26,465
2025-07-30 23:02:26,435
2025-07-30 23:02:26,405
2025-07-30 23:02:26,464
2025-07-30 23:02:26,450
2025-07-30 23:02:26,413
2025-07-30 23:02:26,452
2025-07-30 23:02:26,467
2025-07-30 23:02:26,414
2025-07-30 23:02:26,440
2025-07-30 23:02:26,467
2025-07-30 23:02:26,429
2025-07-30 23:02:26,459
2025-07-30 23:02:26,488
2025-07-30 23:02:26,436
2025-07-30 23:02:26,413
2025-07-30 23:02:26,461
2025-07-30 23:02:26,440
2025-07-30 23:02:26,409
2025-07-30 23:02:26,457
2025-07-30 23:02:26,444
2025-07-30 23:02:26,402
2025-07-30 23:02:26,440
2025-07-30 23:02:26,460
2025-07-30 23:02:26,411
2025-07-30 23:02:26,423
2025-07-30 23:02:26,471
2025-07-30 23:02:26,415
2025-07-30 23:02:26,418
2025-07-30 23:02:26,477
2025-07-30 23:02:26,439
2025-07-30 23:02:26,427
2025-07-30 23:02:26,459
2025-07-30 23:02:26,449
2025-07-30 23:02:26,421
2025-07-30 23:02:26,452
2025-07-30 23:02:26,462
2025-07-30 23:02:26,417
2025-07-30 23:02:26,443
2025-07-30 23:02:26,455
2025-07-30 23:02:26,412
2025-07-30 23:02:26,445
2025-07-30 23:02:26,477
2025-07-30 23:02:26,442
2025-07-30 23:02:27,439
2025-07-30 23:02:27,484
2025-07-30 23:02:27,422
2025-07-30 23:02:27,417
2025-07-30 23:02:27,470
2025-07-30 23:02:27,456
2025-07-30 23:02:27,414
2025-07-30 23:02:27,456
2025-07-30 23:02:27,458
2025-07-30 23:02:27,415
2025-07-30 23:02:27,451
2025-07-30 23:02:27,472
2025-07-30 23:02:27,431
2025-07-30 23:02:27,466
2025-07-30 23:02:27,493
2025-07-30 23:02:27,460
2025-07-30 23:02:27,454
2025-07-30 23:02:27,490
2025-07-30 23:02:27,437
2025-07-30 23:02:27,420
2025-07-30 23:02:27,473
2025-07-30 23:02:27,445
2025-07-30 23:02:27,410
2025-07-30 23:02:27,463
2025-07-30 23:02:27,467
2025-07-30 23:02:27,420
2025-07-30 23:02:27,465
2025-07-30 23:02:27,486
2025-07-30 23:02:27,456
2025-07-30 23:02:27,455
2025-07-30 23:02:27,463
2025-07-30 23:02:27,438
2025-07-30 23:02:27,453
2025-07-30 23:02:27,474
2025-07-30 23:02:27,442
2025-07-30 23:02:27,415
2025-07-30 23:02:27,470
2025-07-30 23:02:27,461
2025-07-30 23:02:27,429
2025-07-30 23:02:27,455
2025-07-30 23:02:27,463
2025-07-30 23:02:27,421
2025-07-30 23:02:27,463
2025-07-30 23:02:27,492
2025-07-30 23:02:27,453
2025-07-30 23:02:27,451
2025-07-30 23:02:27,470
2025-07-30 23:02:27,438
2025-07-30 23:02:27,436
2025-07-30 23:02:27,513
2025-07-30 23:02:27,464
2025-07-30 23:02:27,417
2025-07-30 23:02:27,467
2025-07-30 23:02:27,459
2025-07-30 23:02:27,436
2025-07-30 23:02:27,473
2025-07-30 23:02:27,471
2025-07-30 23:02:27,421
2025-07-30 23:02:27,459
2025-07-30 23:02:27,491
2025-07-30 23:02:27,442
2025-07-30 23:02:27,456
2025-07-30 23:02:27,503
2025-07-30 23:02:27,451
2025-07-30 23:02:27,450
2025-07-30 23:02:27,478
2025-07-30 23:02:27,462
2025-07-30 23:02:27,426
2025-07-30 23:02:27,472
2025-07-30 23:02:27,462
2025-07-30 23:02:27,418
2025-07-30 23:02:27,461
2025-07-30 23:02:27,473
2025-07-30 23:02:27,429
2025-07-30 23:02:27,457
2025-07-30 23:02:27,478
2025-07-30 23:02:27,431
2025-07-30 23:02:27,452
2025-07-30 23:02:27,492
2025-07-30 23:02:27,443
2025-07-30 23:02:27,444
2025-07-30 23:02:27,479
2025-07-30 23:02:27,447
2025-07-30 23:02:27,425
2025-07-30 23:02:27,471
2025-07-30 23:02:27,461
2025-07-30 23:02:27,420
2025-07-30 23:02:27,457
2025-07-30 23:02:27,468
2025-07-30 23:02:27,429
2025-07-30 23:02:27,454
2025-07-30 23:02:27,497
2025-07-30 23:02:27,437
2025-07-30 23:02:27,435
2025-07-30 23:02:27,466
2025-07-30 23:02:27,433
2025-07-30 23:02:27,441
2025-07-30 23:02:27,469
2025-07-30 23:02:27,442
2025-07-30 23:02:27,412
2025-07-30 23:02:27,467
2025-07-30 23:02:27,464
2025-07-30 23:02:27,424
2025-07-30 23:02:27,465
2025-07-30 23:02:27,481
2025-07-30 23:02:27,433
2025-07-30 23:02:27,445
2025-07-30 23:02:27,479
2025-07-30 23:02:27,434
2025-07-30 23:02:27,436
2025-07-30 23:02:27,489
2025-07-30 23:02:27,438
2025-07-30 23:02:27,420
2025-07-30 23:02:27,471
2025-07-30 23:02:27,460
2025-07-30 23:02:27,432
2025-07-30 23:02:27,480
2025-07-30 23:02:27,490
2025-07-30 23:02:27,450
2025-07-30 23:02:27,471
2025-07-30 23:02:27,486
2025-07-30 23:02:27,430
2025-07-30 23:02:27,437
2025-07-30 23:02:27,464
2025-07-30 23:02:27,432
2025-07-30 23:02:27,434
2025-07-30 23:02:27,484
2025-07-30 23:02:27,457
2025-07-30 23:02:27,439
2025-07-30 23:02:27,482
2025-07-30 23:02:27,469
2025-07-30 23:02:27,463
2025-07-30 23:02:27,488
2025-07-30 23:02:27,478
2025-07-30 23:02:27,421
2025-07-30 23:02:27,461
2025-07-30 23:02:27,489
2025-07-30 23:02:27,439
2025-07-30 23:02:27,451
2025-07-30 23:02:27,490
2025-07-30 23:02:27,451
2025-07-30 23:02:27,448
2025-07-30 23:02:27,492
2025-07-30 23:02:27,464
2025-07-30 23:02:27,446
2025-07-30 23:02:27,503
2025-07-30 23:02:27,482
2025-07-30 23:02:27,424
2025-07-30 23:02:27,461
2025-07-30 23:02:27,484
2025-07-30 23:02:27,455
2025-07-30 23:02:27,469
2025-07-30 23:02:27,474
2025-07-30 23:02:27,432
2025-07-30 23:02:27,456
2025-07-30 23:02:27,495
2025-07-30 23:02:27,455
2025-07-30 23:02:27,442
2025-07-30 23:02:27,497
2025-07-30 23:02:27,458
2025-07-30 23:02:27,440
2025-07-30 23:02:27,491
2025-07-30 23:02:27,487
2025-07-30 23:02:27,452
2025-07-30 23:02:27,477
2025-07-30 23:02:27,481
2025-07-30 23:02:27,437
2025-07-30 23:02:27,472
2025-07-30 23:02:27,494
2025-07-30 23:02:27,449
2025-07-30 23:02:27,470
2025-07-30 23:02:27,504
2025-07-30 23:02:27,473
2025-07-30 23:02:27,461
2025-07-30 23:02:27,515
2025-07-30 23:02:27,484
2025-07-30 23:02:27,444
2025-07-30 23:02:27,498
2025-07-30 23:02:27,482
2025-07-30 23:02:27,447
2025-07-30 23:02:27,488
2025-07-30 23:02:27,494
2025-07-30 23:02:27,457
2025-07-30 23:02:27,485
2025-07-30 23:02:27,507
2025-07-30 23:02:27,471
2025-07-30 23:02:27,494
2025-07-30 23:02:27,530
2025-07-30 23:02:27,469
2025-07-30 23:02:27,450
2025-07-30 23:02:27,501
2025-07-30 23:02:27,468
2025-07-30 23:02:27,463
2025-07-30 23:02:27,511
2025-07-30 23:02:28,495
2025-07-30 23:02:28,453
2025-07-30 23:02:28,493
2025-07-30 23:02:28,507
2025-07-30 23:02:28,460
2025-07-30 23:02:28,471
2025-07-30 23:02:28,516
2025-07-30 23:02:28,466
2025-07-30 23:02:28,468
2025-07-30 23:02:28,523
2025-07-30 23:02:28,484
2025-07-30 23:02:28,451
2025-07-30 23:02:28,500
2025-07-30 23:02:28,478
2025-07-30 23:02:28,462
2025-07-30 23:02:28,508
2025-07-30 23:02:28,488
2025-07-30 23:02:28,441
2025-07-30 23:02:28,488
2025-07-30 23:02:28,505
2025-07-30 23:02:28,464
2025-07-30 23:02:28,484
2025-07-30 23:02:28,503
2025-07-30 23:02:28,470
2025-07-30 23:02:28,480
2025-07-30 23:02:28,521
2025-07-30 23:02:28,466
2025-07-30 23:02:28,448
2025-07-30 23:02:28,496
2025-07-30 23:02:28,480
2025-07-30 23:02:28,461
2025-07-30 23:02:28,512
2025-07-30 23:02:28,500
2025-07-30 23:02:28,462
2025-07-30 23:02:28,497
2025-07-30 23:02:28,510
2025-07-30 23:02:28,471
2025-07-30 23:02:28,492
2025-07-30 23:02:28,519
2025-07-30 23:02:28,462
2025-07-30 23:02:28,473
2025-07-30 23:02:28,515
2025-07-30 23:02:28,483
2025-07-30 23:02:28,493
2025-07-30 23:02:28,530
2025-07-30 23:02:28,496
2025-07-30 23:02:28,461
2025-07-30 23:02:28,503
2025-07-30 23:02:28,519
2025-07-30 23:02:28,465
2025-07-30 23:02:28,503
2025-07-30 23:02:28,513
2025-07-30 23:02:28,463
2025-07-30 23:02:28,497
2025-07-30 23:02:28,512
2025-07-30 23:02:28,474
2025-07-30 23:02:28,480
2025-07-30 23:02:28,522
2025-07-30 23:02:28,485
2025-07-30 23:02:28,468
2025-07-30 23:02:28,512
2025-07-30 23:02:28,489
2025-07-30 23:02:28,466
2025-07-30 23:02:28,511
2025-07-30 23:02:28,521
2025-07-30 23:02:28,472
2025-07-30 23:02:28,509
2025-07-30 23:02:28,522
2025-07-30 23:02:28,449
2025-07-30 23:02:28,459
2025-07-30 23:02:28,492
2025-07-30 23:02:28,451
2025-07-30 23:02:28,451
2025-07-30 23:02:28,506
2025-07-30 23:02:28,461
2025-07-30 23:02:28,455
2025-07-30 23:02:28,496
2025-07-30 23:02:28,477
2025-07-30 23:02:28,443
2025-07-30 23:02:28,495
2025-07-30 23:02:28,497
2025-07-30 23:02:28,455
2025-07-30 23:02:28,491
2025-07-30 23:02:28,489
2025-07-30 23:02:28,442
2025-07-30 23:02:28,469
2025-07-30 23:02:28,484
2025-07-30 23:02:28,450
2025-07-30 23:02:28,451
2025-07-30 23:02:28,494
2025-07-30 23:02:28,464
2025-07-30 23:02:28,451
2025-07-30 23:02:28,512
2025-07-30 23:02:28,486
2025-07-30 23:02:28,435
2025-07-30 23:02:28,495
2025-07-30 23:02:28,511
2025-07-30 23:02:28,476
2025-07-30 23:02:28,485
2025-07-30 23:02:28,491
2025-07-30 23:02:28,457
2025-07-30 23:02:28,483
2025-07-30 23:02:28,500
2025-07-30 23:02:28,468
2025-07-30 23:02:28,458
2025-07-30 23:02:28,519
2025-07-30 23:02:28,491
2025-07-30 23:02:28,456
2025-07-30 23:02:28,502
2025-07-30 23:02:28,496
2025-07-30 23:02:28,455
2025-07-30 23:02:28,487
2025-07-30 23:02:28,483
2025-07-30 23:02:28,450
2025-07-30 23:02:28,479
2025-07-30 23:02:28,511
2025-07-30 23:02:28,483
2025-07-30 23:02:28,493
2025-07-30 23:02:28,538
2025-07-30 23:02:28,483
2025-07-30 23:02:28,472
2025-07-30 23:02:28,522
2025-07-30 23:02:28,511
2025-07-30 23:02:28,483
2025-07-30 23:02:28,521
2025-07-30 23:02:28,513
2025-07-30 23:02:28,469
2025-07-30 23:02:28,515
2025-07-30 23:02:28,523
2025-07-30 23:02:28,477
2025-07-30 23:02:28,493
2025-07-30 23:02:28,531
2025-07-30 23:02:28,486
2025-07-30 23:02:28,508
2025-07-30 23:02:28,539
2025-07-30 23:02:28,510
2025-07-30 23:02:28,478
2025-07-30 23:02:28,524
2025-07-30 23:02:28,484
2025-07-30 23:02:28,458
2025-07-30 23:02:28,511
2025-07-30 23:02:28,511
2025-07-30 23:02:28,476
2025-07-30 23:02:28,519
2025-07-30 23:02:28,524
2025-07-30 23:02:28,481
2025-07-30 23:02:28,506
2025-07-30 23:02:28,534
2025-07-30 23:02:28,501
2025-07-30 23:02:28,504
2025-07-30 23:02:28,534
2025-07-30 23:02:28,483
2025-07-30 23:02:28,471
2025-07-30 23:02:28,528
2025-07-30 23:02:28,503
2025-07-30 23:02:28,476
2025-07-30 23:02:28,521
2025-07-30 23:02:28,515
2025-07-30 23:02:28,464
2025-07-30 23:02:28,507
2025-07-30 23:02:28,531
2025-07-30 23:02:28,488
2025-07-30 23:02:28,519
2025-07-30 23:02:28,568
2025-07-30 23:02:28,499
2025-07-30 23:02:28,496
2025-07-30 23:02:28,543
2025-07-30 23:02:28,498
2025-07-30 23:02:28,489
2025-07-30 23:02:28,539
2025-07-30 23:02:28,510
2025-07-30 23:02:28,483
2025-07-30 23:02:28,524
2025-07-30 23:02:28,531
2025-07-30 23:02:28,486
2025-07-30 23:02:28,539
2025-07-30 23:02:28,543
2025-07-30 23:02:28,490
2025-07-30 23:02:28,500
2025-07-30 23:02:28,544
2025-07-30 23:02:28,495
2025-07-30 23:02:28,489
2025-07-30 23:02:28,552
2025-07-30 23:02:28,514
2025-07-30 23:02:28,489
2025-07-30 23:02:28,544
2025-07-30 23:02:28,529
2025-07-30 23:02:28,507
2025-07-30 23:02:28,552
2025-07-30 23:02:28,546
2025-07-30 23:02:29,517
2025-07-30 23:02:29,532
2025-07-30 23:02:29,548
2025-07-30 23:02:29,511
2025-07-30 23:02:29,525
2025-07-30 23:02:29,541
2025-07-30 23:02:29,516
2025-07-30 23:02:29,520
2025-07-30 23:02:29,559
2025-07-30 23:02:29,540
2025-07-30 23:02:29,524
2025-07-30 23:02:29,562
2025-07-30 23:02:29,562
2025-07-30 23:02:29,547
2025-07-30 23:02:29,572
2025-07-30 23:02:29,550
2025-07-30 23:02:29,514
2025-07-30 23:02:29,551
2025-07-30 23:02:29,572
2025-07-30 23:02:29,523
2025-07-30 23:02:29,532
2025-07-30 23:02:29,560
2025-07-30 23:02:29,532
2025-07-30 23:02:29,544
2025-07-30 23:02:29,584
2025-07-30 23:02:29,546
2025-07-30 23:02:29,523
2025-07-30 23:02:29,572
2025-07-30 23:02:29,564
2025-07-30 23:02:29,529
2025-07-30 23:02:29,572
2025-07-30 23:02:29,569
2025-07-30 23:02:29,525
2025-07-30 23:02:29,561
2025-07-30 23:02:29,582
2025-07-30 23:02:29,545
2025-07-30 23:02:29,574
2025-07-30 23:02:29,608
2025-07-30 23:02:29,553
2025-07-30 23:02:29,553
2025-07-30 23:02:29,598
2025-07-30 23:02:29,580
2025-07-30 23:02:29,564
2025-07-30 23:02:29,599
2025-07-30 23:02:29,596
2025-07-30 23:02:29,552
2025-07-30 23:02:29,601
2025-07-30 23:02:29,600
2025-07-30 23:02:29,541
2025-07-30 23:02:29,570
2025-07-30 23:02:29,590
2025-07-30 23:02:29,540
2025-07-30 23:02:29,561
2025-07-30 23:02:29,606
2025-07-30 23:02:29,571
2025-07-30 23:02:29,558
2025-07-30 23:02:29,596
2025-07-30 23:02:29,561
2025-07-30 23:02:29,532
2025-07-30 23:02:29,582
2025-07-30 23:02:29,580
2025-07-30 23:02:29,553
2025-07-30 23:02:29,581
2025-07-30 23:02:29,587
2025-07-30 23:02:29,538
2025-07-30 23:02:29,562
2025-07-30 23:02:29,587
2025-07-30 23:02:29,533
2025-07-30 23:02:29,545
2025-07-30 23:02:29,581
2025-07-30 23:02:29,545
2025-07-30 23:02:29,538
2025-07-30 23:02:29,597
2025-07-30 23:02:29,555
2025-07-30 23:02:29,517
2025-07-30 23:02:29,569
2025-07-30 23:02:29,565
2025-07-30 23:02:29,526
2025-07-30 23:02:29,579
2025-07-30 23:02:29,575
2025-07-30 23:02:29,540
2025-07-30 23:02:29,580
2025-07-30 23:02:29,603
2025-07-30 23:02:29,563
2025-07-30 23:02:29,573
2025-07-30 23:02:29,606
2025-07-30 23:02:29,563
2025-07-30 23:02:29,557
2025-07-30 23:02:29,587
2025-07-30 23:02:29,571
2025-07-30 23:02:29,542
2025-07-30 23:02:29,575
2025-07-30 23:02:29,567
2025-07-30 23:02:29,531
2025-07-30 23:02:29,568
2025-07-30 23:02:29,581
2025-07-30 23:02:29,536
2025-07-30 23:02:29,559
2025-07-30 23:02:29,598
2025-07-30 23:02:29,541
2025-07-30 23:02:29,571
2025-07-30 23:02:29,600
2025-07-30 23:02:29,552
2025-07-30 23:02:29,536
2025-07-30 23:02:29,593
2025-07-30 23:02:29,562
2025-07-30 23:02:29,516
2025-07-30 23:02:29,557
2025-07-30 23:02:29,564
2025-07-30 23:02:29,523
2025-07-30 23:02:29,566
2025-07-30 23:02:29,581
2025-07-30 23:02:29,540
2025-07-30 23:02:29,559
2025-07-30 23:02:29,595
2025-07-30 23:02:29,541
2025-07-30 23:02:29,548
2025-07-30 23:02:29,581
2025-07-30 23:02:29,551
2025-07-30 23:02:29,528
2025-07-30 23:02:29,577
2025-07-30 23:02:29,565
2025-07-30 23:02:29,526
2025-07-30 23:02:29,572
2025-07-30 23:02:29,578
2025-07-30 23:02:29,547
2025-07-30 23:02:29,577
2025-07-30 23:02:29,581
2025-07-30 23:02:29,539
2025-07-30 23:02:29,559
2025-07-30 23:02:29,589
2025-07-30 23:02:29,542
2025-07-30 23:02:29,535
2025-07-30 23:02:29,572
2025-07-30 23:02:29,549
2025-07-30 23:02:29,526
2025-07-30 23:02:29,579
2025-07-30 23:02:29,565
2025-07-30 23:02:29,527
2025-07-30 23:02:29,573
2025-07-30 23:02:29,572
2025-07-30 23:02:29,530
2025-07-30 23:02:29,574
2025-07-30 23:02:29,566
2025-07-30 23:02:29,526
2025-07-30 23:02:29,556
2025-07-30 23:02:29,585
2025-07-30 23:02:29,545
2025-07-30 23:02:29,557
2025-07-30 23:02:29,586
2025-07-30 23:02:29,559
2025-07-30 23:02:29,540
2025-07-30 23:02:29,586
2025-07-30 23:02:29,572
2025-07-30 23:02:29,533
2025-07-30 23:02:29,581
2025-07-30 23:02:29,584
2025-07-30 23:02:29,539
2025-07-30 23:02:29,563
2025-07-30 23:02:29,605
2025-07-30 23:02:29,577
2025-07-30 23:02:29,550
2025-07-30 23:02:29,567
2025-07-30 23:02:29,529
2025-07-30 23:02:29,539
2025-07-30 23:02:29,581
2025-07-30 23:02:29,538
2025-07-30 23:02:29,519
2025-07-30 23:02:29,569
2025-07-30 23:02:29,554
2025-07-30 23:02:29,517
2025-07-30 23:02:29,560
2025-07-30 23:02:29,566
2025-07-30 23:02:29,520
2025-07-30 23:02:29,550
2025-07-30 23:02:29,585
2025-07-30 23:02:29,535
2025-07-30 23:02:29,546
2025-07-30 23:02:29,595
2025-07-30 23:02:29,530
2025-07-30 23:02:29,511
2025-07-30 23:02:29,569
2025-07-30 23:02:29,548
2025-07-30 23:02:29,501
2025-07-30 23:02:29,543
2025-07-30 23:02:29,547
2025-07-30 23:02:29,506
2025-07-30 23:02:29,547
2025-07-30 23:02:29,563
2025-07-30 23:02:29,534
2025-07-30 23:02:29,565
2025-07-30 23:02:29,587
2025-07-30 23:02:29,532
2025-07-30 23:02:29,513
2025-07-30 23:02:30,564
2025-07-30 23:02:30,512
2025-07-30 23:02:30,513
2025-07-30 23:02:30,570
2025-07-30 23:02:30,545
2025-07-30 23:02:30,498
2025-07-30 23:02:30,551
2025-07-30 23:02:30,548
2025-07-30 23:02:30,490
2025-07-30 23:02:30,527
2025-07-30 23:02:30,556
2025-07-30 23:02:30,543
2025-07-30 23:02:30,560
2025-07-30 23:02:30,576
2025-07-30 23:02:30,520
2025-07-30 23:02:30,525
2025-07-30 23:02:30,574
2025-07-30 23:02:30,531
2025-07-30 23:02:30,518
2025-07-30 23:02:30,567
2025-07-30 23:02:30,547
2025-07-30 23:02:30,513
2025-07-30 23:02:30,569
2025-07-30 23:02:30,569
2025-07-30 23:02:30,516
2025-07-30 23:02:30,552
2025-07-30 23:02:30,582
2025-07-30 23:02:30,541
2025-07-30 23:02:30,559
2025-07-30 23:02:30,555
2025-07-30 23:02:30,497
2025-07-30 23:02:30,503
2025-07-30 23:02:30,544
2025-07-30 23:02:30,515
2025-07-30 23:02:30,500
2025-07-30 23:02:30,548
2025-07-30 23:02:30,540
2025-07-30 23:02:30,500
2025-07-30 23:02:30,549
2025-07-30 23:02:30,551
2025-07-30 23:02:30,515
2025-07-30 23:02:30,547
2025-07-30 23:02:30,583
2025-07-30 23:02:30,521
2025-07-30 23:02:30,524
2025-07-30 23:02:30,556
2025-07-30 23:02:30,524
2025-07-30 23:02:30,506
2025-07-30 23:02:30,558
2025-07-30 23:02:30,522
2025-07-30 23:02:30,488
2025-07-30 23:02:30,539
2025-07-30 23:02:30,535
2025-07-30 23:02:30,500
2025-07-30 23:02:30,542
2025-07-30 23:02:30,542
2025-07-30 23:02:30,506
2025-07-30 23:02:30,545
2025-07-30 23:02:30,564
2025-07-30 23:02:30,511
2025-07-30 23:02:30,522
2025-07-30 23:02:30,550
2025-07-30 23:02:30,513
2025-07-30 23:02:30,508
2025-07-30 23:02:30,553
2025-07-30 23:02:30,519
2025-07-30 23:02:30,502
2025-07-30 23:02:30,553
2025-07-30 23:02:30,546
2025-07-30 23:02:30,505
2025-07-30 23:02:30,554
2025-07-30 23:02:30,551
2025-07-30 23:02:30,501
2025-07-30 23:02:30,543
2025-07-30 23:02:30,578
2025-07-30 23:02:30,506
2025-07-30 23:02:30,505
2025-07-30 23:02:30,546
2025-07-30 23:02:30,516
2025-07-30 23:02:30,516
2025-07-30 23:02:30,568
2025-07-30 23:02:30,521
2025-07-30 23:02:30,488
2025-07-30 23:02:30,554
2025-07-30 23:02:30,543
2025-07-30 23:02:30,505
2025-07-30 23:02:30,551
2025-07-30 23:02:30,556
2025-07-30 23:02:30,507
2025-07-30 23:02:30,535
2025-07-30 23:02:30,561
2025-07-30 23:02:30,510
2025-07-30 23:02:30,524
2025-07-30 23:02:30,551
2025-07-30 23:02:30,509
2025-07-30 23:02:30,502
2025-07-30 23:02:30,556
2025-07-30 23:02:30,534
2025-07-30 23:02:30,506
2025-07-30 23:02:30,587
2025-07-30 23:02:30,544
2025-07-30 23:02:30,505
2025-07-30 23:02:30,549
2025-07-30 23:02:30,559
2025-07-30 23:02:30,509
2025-07-30 23:02:30,540
2025-07-30 23:02:30,564
2025-07-30 23:02:30,513
2025-07-30 23:02:30,534
2025-07-30 23:02:30,567
2025-07-30 23:02:30,534
2025-07-30 23:02:30,516
2025-07-30 23:02:30,563
2025-07-30 23:02:30,543
2025-07-30 23:02:30,502
2025-07-30 23:02:30,563
2025-07-30 23:02:30,580
2025-07-30 23:02:30,510
2025-07-30 23:02:30,545
2025-07-30 23:02:30,547
2025-07-30 23:02:30,520
2025-07-30 23:02:30,533
2025-07-30 23:02:30,553
2025-07-30 23:02:30,503
2025-07-30 23:02:30,522
2025-07-30 23:02:30,552
2025-07-30 23:02:30,503
2025-07-30 23:02:30,504
2025-07-30 23:02:30,553
2025-07-30 23:02:30,548
2025-07-30 23:02:30,504
2025-07-30 23:02:30,532
2025-07-30 23:02:30,527
2025-07-30 23:02:30,505
2025-07-30 23:02:30,549
2025-07-30 23:02:30,552
2025-07-30 23:02:30,493
2025-07-30 23:02:30,512
2025-07-30 23:02:30,561
2025-07-30 23:02:30,517
2025-07-30 23:02:30,523
2025-07-30 23:02:30,568
2025-07-30 23:02:30,539
2025-07-30 23:02:30,510
2025-07-30 23:02:30,577
2025-07-30 23:02:30,554
2025-07-30 23:02:30,499
2025-07-30 23:02:30,539
2025-07-30 23:02:30,535
2025-07-30 23:02:30,483
2025-07-30 23:02:30,524
2025-07-30 23:02:30,549
2025-07-30 23:02:30,493
2025-07-30 23:02:30,521
2025-07-30 23:02:30,550
2025-07-30 23:02:30,499
2025-07-30 23:02:30,503
2025-07-30 23:02:30,554
2025-07-30 23:02:30,506
2025-07-30 23:02:30,491
2025-07-30 23:02:30,537
2025-07-30 23:02:30,526
2025-07-30 23:02:30,496
2025-07-30 23:02:30,519
2025-07-30 23:02:30,515
2025-07-30 23:02:30,483
2025-07-30 23:02:30,520
2025-07-30 23:02:30,533
2025-07-30 23:02:30,496
2025-07-30 23:02:30,512
2025-07-30 23:02:30,532
2025-07-30 23:02:30,488
2025-07-30 23:02:30,515
2025-07-30 23:02:30,534
2025-07-30 23:02:30,498
2025-07-30 23:02:30,471
2025-07-30 23:02:30,520
2025-07-30 23:02:30,513
2025-07-30 23:02:30,476
2025-07-30 23:02:30,518
2025-07-30 23:02:30,519
2025-07-30 23:02:30,473
2025-07-30 23:02:30,506
2025-07-30 23:02:30,529
2025-07-30 23:02:30,480
2025-07-30 23:02:30,493
2025-07-30 23:02:30,544
2025-07-30 23:02:30,495
2025-07-30 23:02:30,484
2025-07-30 23:02:30,524
2025-07-30 23:02:31,493
2025-07-30 23:02:31,478
2025-07-30 23:02:31,520
2025-07-30 23:02:31,510
2025-07-30 23:02:31,470
2025-07-30 23:02:31,513
2025-07-30 23:02:31,521
2025-07-30 23:02:31,478
2025-07-30 23:02:31,494
2025-07-30 23:02:31,523
2025-07-30 23:02:31,482
2025-07-30 23:02:31,503
2025-07-30 23:02:31,546
2025-07-30 23:02:31,506
2025-07-30 23:02:31,480
2025-07-30 23:02:31,518
2025-07-30 23:02:31,503
2025-07-30 23:02:31,485
2025-07-30 23:02:31,522
2025-07-30 23:02:31,495
2025-07-30 23:02:31,473
2025-07-30 23:02:31,504
2025-07-30 23:02:31,517
2025-07-30 23:02:31,477
2025-07-30 23:02:31,500
2025-07-30 23:02:31,528
2025-07-30 23:02:31,479
2025-07-30 23:02:31,498
2025-07-30 23:02:31,545
2025-07-30 23:02:31,476
2025-07-30 23:02:31,478
2025-07-30 23:02:31,522
2025-07-30 23:02:31,496
2025-07-30 23:02:31,473
2025-07-30 23:02:31,525
2025-07-30 23:02:31,514
2025-07-30 23:02:31,473
2025-07-30 23:02:31,519
2025-07-30 23:02:31,514
2025-07-30 23:02:31,472
2025-07-30 23:02:31,496
2025-07-30 23:02:31,530
2025-07-30 23:02:31,506
2025-07-30 23:02:31,498
2025-07-30 23:02:31,543
2025-07-30 23:02:31,493
2025-07-30 23:02:31,493
2025-07-30 23:02:31,527
2025-07-30 23:02:31,494
2025-07-30 23:02:31,475
2025-07-30 23:02:31,521
2025-07-30 23:02:31,511
2025-07-30 23:02:31,471
2025-07-30 23:02:31,521
2025-07-30 23:02:31,525
2025-07-30 23:02:31,490
2025-07-30 23:02:31,508
2025-07-30 23:02:31,540
2025-07-30 23:02:31,496
2025-07-30 23:02:31,506
2025-07-30 23:02:31,542
2025-07-30 23:02:31,512
2025-07-30 23:02:31,491
2025-07-30 23:02:31,539
2025-07-30 23:02:31,514
2025-07-30 23:02:31,498
2025-07-30 23:02:31,523
2025-07-30 23:02:31,520
2025-07-30 23:02:31,479
2025-07-30 23:02:31,510
2025-07-30 23:02:31,534
2025-07-30 23:02:31,501
2025-07-30 23:02:31,519
2025-07-30 23:02:31,545
2025-07-30 23:02:31,493
2025-07-30 23:02:31,498
2025-07-30 23:02:31,541
2025-07-30 23:02:31,505
2025-07-30 23:02:31,484
2025-07-30 23:02:31,531
2025-07-30 23:02:31,511
2025-07-30 23:02:31,487
2025-07-30 23:02:31,526
2025-07-30 23:02:31,522
2025-07-30 23:02:31,492
2025-07-30 23:02:31,517
2025-07-30 23:02:31,535
2025-07-30 23:02:31,494
2025-07-30 23:02:31,507
2025-07-30 23:02:31,541
2025-07-30 23:02:31,483
2025-07-30 23:02:31,472
2025-07-30 23:02:31,517
2025-07-30 23:02:31,488
2025-07-30 23:02:31,473
2025-07-30 23:02:31,525
2025-07-30 23:02:31,508
2025-07-30 23:02:31,478
2025-07-30 23:02:31,520
2025-07-30 23:02:31,518
2025-07-30 23:02:31,475
2025-07-30 23:02:31,524
2025-07-30 23:02:31,526
2025-07-30 23:02:31,478
2025-07-30 23:02:31,515
2025-07-30 23:02:31,524
2025-07-30 23:02:31,485
2025-07-30 23:02:31,487
2025-07-30 23:02:31,526
2025-07-30 23:02:31,495
2025-07-30 23:02:31,480
2025-07-30 23:02:31,526
2025-07-30 23:02:31,535
2025-07-30 23:02:31,501
2025-07-30 23:02:31,511
2025-07-30 23:02:31,511
2025-07-30 23:02:31,468
2025-07-30 23:02:31,517
2025-07-30 23:02:31,508
2025-07-30 23:02:31,471
2025-07-30 23:02:31,488
2025-07-30 23:02:31,520
2025-07-30 23:02:31,487
2025-07-30 23:02:31,501
2025-07-30 23:02:31,550
2025-07-30 23:02:31,516
2025-07-30 23:02:31,479
2025-07-30 23:02:31,518
2025-07-30 23:02:31,496
2025-07-30 23:02:31,459
2025-07-30 23:02:31,523
2025-07-30 23:02:31,541
2025-07-30 23:02:31,487
2025-07-30 23:02:31,496
2025-07-30 23:02:31,519
2025-07-30 23:02:31,478
2025-07-30 23:02:31,496
2025-07-30 23:02:31,545
2025-07-30 23:02:31,502
2025-07-30 23:02:31,478
2025-07-30 23:02:31,529
2025-07-30 23:02:31,510
2025-07-30 23:02:31,477
2025-07-30 23:02:31,513
2025-07-30 23:02:31,521
2025-07-30 23:02:31,482
2025-07-30 23:02:31,522
2025-07-30 23:02:31,535
2025-07-30 23:02:31,484
2025-07-30 23:02:31,514
2025-07-30 23:02:31,547
2025-07-30 23:02:31,486
2025-07-30 23:02:31,507
2025-07-30 23:02:31,536
2025-07-30 23:02:31,492
2025-07-30 23:02:31,493
2025-07-30 23:02:31,543
