Timestamp,Valor Analogico
2025-07-30 22:57:08,473
2025-07-30 22:57:08,483
2025-07-30 22:57:08,476
2025-07-30 22:57:08,453
2025-07-30 22:57:08,423
2025-07-30 22:57:08,392
2025-07-30 22:57:08,365
2025-07-30 22:57:08,341
2025-07-30 22:57:08,325
2025-07-30 22:57:08,317
2025-07-30 22:57:08,319
2025-07-30 22:57:08,329
2025-07-30 22:57:08,342
2025-07-30 22:57:08,351
2025-07-30 22:57:08,355
2025-07-30 22:57:08,358
2025-07-30 22:57:08,357
2025-07-30 22:57:08,347
2025-07-30 22:57:08,303
2025-07-30 22:57:08,308
2025-07-30 22:57:08,349
2025-07-30 22:57:08,322
2025-07-30 22:57:08,332
2025-07-30 22:57:08,368
2025-07-30 22:57:08,337
2025-07-30 22:57:08,326
2025-07-30 22:57:08,367
2025-07-30 22:57:08,336
2025-07-30 22:57:08,317
2025-07-30 22:57:08,345
2025-07-30 22:57:08,353
2025-07-30 22:57:08,323
2025-07-30 22:57:08,363
2025-07-30 22:57:08,365
2025-07-30 22:57:08,299
2025-07-30 22:57:08,337
2025-07-30 22:57:08,363
2025-07-30 22:57:08,331
2025-07-30 22:57:08,342
2025-07-30 22:57:08,406
2025-07-30 22:57:08,345
2025-07-30 22:57:08,297
2025-07-30 22:57:08,361
2025-07-30 22:57:08,363
2025-07-30 22:57:08,326
2025-07-30 22:57:08,371
2025-07-30 22:57:08,380
2025-07-30 22:57:08,344
2025-07-30 22:57:08,358
2025-07-30 22:57:08,373
2025-07-30 22:57:08,348
2025-07-30 22:57:08,340
2025-07-30 22:57:08,376
2025-07-30 22:57:08,341
2025-07-30 22:57:08,342
2025-07-30 22:57:08,379
2025-07-30 22:57:08,360
2025-07-30 22:57:08,355
2025-07-30 22:57:08,377
2025-07-30 22:57:08,366
2025-07-30 22:57:08,344
2025-07-30 22:57:08,393
2025-07-30 22:57:08,381
2025-07-30 22:57:08,332
2025-07-30 22:57:08,389
2025-07-30 22:57:08,396
2025-07-30 22:57:08,332
2025-07-30 22:57:08,349
2025-07-30 22:57:08,408
2025-07-30 22:57:08,359
2025-07-30 22:57:08,355
2025-07-30 22:57:08,394
2025-07-30 22:57:08,344
2025-07-30 22:57:08,326
2025-07-30 22:57:08,402
2025-07-30 22:57:08,391
2025-07-30 22:57:08,336
2025-07-30 22:57:08,368
2025-07-30 22:57:08,363
2025-07-30 22:57:08,341
2025-07-30 22:57:08,376
2025-07-30 22:57:08,366
2025-07-30 22:57:08,323
2025-07-30 22:57:08,319
2025-07-30 22:57:08,370
2025-07-30 22:57:08,338
2025-07-30 22:57:08,313
2025-07-30 22:57:08,369
2025-07-30 22:57:08,336
2025-07-30 22:57:08,317
2025-07-30 22:57:08,356
2025-07-30 22:57:08,351
2025-07-30 22:57:08,311
2025-07-30 22:57:08,355
2025-07-30 22:57:08,339
2025-07-30 22:57:08,292
2025-07-30 22:57:08,343
2025-07-30 22:57:08,357
2025-07-30 22:57:08,313
2025-07-30 22:57:08,311
2025-07-30 22:57:08,345
2025-07-30 22:57:08,314
2025-07-30 22:57:08,301
2025-07-30 22:57:08,348
2025-07-30 22:57:08,318
2025-07-30 22:57:08,310
2025-07-30 22:57:08,340
2025-07-30 22:57:08,340
2025-07-30 22:57:08,287
2025-07-30 22:57:08,346
2025-07-30 22:57:08,363
2025-07-30 22:57:08,308
2025-07-30 22:57:08,320
2025-07-30 22:57:08,359
2025-07-30 22:57:08,330
2025-07-30 22:57:08,341
2025-07-30 22:57:08,418
2025-07-30 22:57:08,343
2025-07-30 22:57:08,328
2025-07-30 22:57:08,360
2025-07-30 22:57:08,356
2025-07-30 22:57:08,332
2025-07-30 22:57:08,368
2025-07-30 22:57:08,353
2025-07-30 22:57:08,322
2025-07-30 22:57:08,354
2025-07-30 22:57:08,359
2025-07-30 22:57:08,309
2025-07-30 22:57:08,337
2025-07-30 22:57:08,374
2025-07-30 22:57:08,340
2025-07-30 22:57:08,346
2025-07-30 22:57:08,390
2025-07-30 22:57:08,347
2025-07-30 22:57:08,347
2025-07-30 22:57:08,400
2025-07-30 22:57:08,356
2025-07-30 22:57:09,355
2025-07-30 22:57:09,401
2025-07-30 22:57:09,378
2025-07-30 22:57:09,335
2025-07-30 22:57:09,386
2025-07-30 22:57:09,389
2025-07-30 22:57:09,336
2025-07-30 22:57:09,381
2025-07-30 22:57:09,404
2025-07-30 22:57:09,342
2025-07-30 22:57:09,378
2025-07-30 22:57:09,412
2025-07-30 22:57:09,368
2025-07-30 22:57:09,362
2025-07-30 22:57:09,383
2025-07-30 22:57:09,386
2025-07-30 22:57:09,370
2025-07-30 22:57:09,384
2025-07-30 22:57:09,394
2025-07-30 22:57:09,378
2025-07-30 22:57:09,384
2025-07-30 22:57:09,403
2025-07-30 22:57:09,353
2025-07-30 22:57:09,387
2025-07-30 22:57:09,425
2025-07-30 22:57:09,387
2025-07-30 22:57:09,368
2025-07-30 22:57:09,422
2025-07-30 22:57:09,406
2025-07-30 22:57:09,374
2025-07-30 22:57:09,397
2025-07-30 22:57:09,416
2025-07-30 22:57:09,390
2025-07-30 22:57:09,412
2025-07-30 22:57:09,411
2025-07-30 22:57:09,378
2025-07-30 22:57:09,443
2025-07-30 22:57:09,439
2025-07-30 22:57:09,381
2025-07-30 22:57:09,419
2025-07-30 22:57:09,455
2025-07-30 22:57:09,413
2025-07-30 22:57:09,404
2025-07-30 22:57:09,441
2025-07-30 22:57:09,419
2025-07-30 22:57:09,404
2025-07-30 22:57:09,472
2025-07-30 22:57:09,465
2025-07-30 22:57:09,402
2025-07-30 22:57:09,437
2025-07-30 22:57:09,456
2025-07-30 22:57:09,429
2025-07-30 22:57:09,445
2025-07-30 22:57:09,474
2025-07-30 22:57:09,446
2025-07-30 22:57:09,441
2025-07-30 22:57:09,485
2025-07-30 22:57:09,448
2025-07-30 22:57:09,432
2025-07-30 22:57:09,485
2025-07-30 22:57:09,469
2025-07-30 22:57:09,437
2025-07-30 22:57:09,496
2025-07-30 22:57:09,478
2025-07-30 22:57:09,439
2025-07-30 22:57:09,477
2025-07-30 22:57:09,462
2025-07-30 22:57:09,439
2025-07-30 22:57:09,481
2025-07-30 22:57:09,503
2025-07-30 22:57:09,437
2025-07-30 22:57:09,456
2025-07-30 22:57:09,498
2025-07-30 22:57:09,467
2025-07-30 22:57:09,452
2025-07-30 22:57:09,501
2025-07-30 22:57:09,474
2025-07-30 22:57:09,433
2025-07-30 22:57:09,502
2025-07-30 22:57:09,499
2025-07-30 22:57:09,465
2025-07-30 22:57:09,484
2025-07-30 22:57:09,515
2025-07-30 22:57:09,463
2025-07-30 22:57:09,500
2025-07-30 22:57:09,527
2025-07-30 22:57:09,461
2025-07-30 22:57:09,466
2025-07-30 22:57:09,523
2025-07-30 22:57:09,493
2025-07-30 22:57:09,486
2025-07-30 22:57:09,514
2025-07-30 22:57:09,525
2025-07-30 22:57:09,461
2025-07-30 22:57:09,506
2025-07-30 22:57:09,491
2025-07-30 22:57:09,456
2025-07-30 22:57:09,496
2025-07-30 22:57:09,488
2025-07-30 22:57:09,466
2025-07-30 22:57:09,508
2025-07-30 22:57:09,517
2025-07-30 22:57:09,473
2025-07-30 22:57:09,484
2025-07-30 22:57:09,508
2025-07-30 22:57:09,473
2025-07-30 22:57:09,479
2025-07-30 22:57:09,504
2025-07-30 22:57:09,482
2025-07-30 22:57:09,446
2025-07-30 22:57:09,496
2025-07-30 22:57:09,484
2025-07-30 22:57:09,472
2025-07-30 22:57:09,503
2025-07-30 22:57:09,507
2025-07-30 22:57:09,458
2025-07-30 22:57:09,473
2025-07-30 22:57:09,502
2025-07-30 22:57:09,464
2025-07-30 22:57:09,460
2025-07-30 22:57:09,492
2025-07-30 22:57:09,476
2025-07-30 22:57:09,455
2025-07-30 22:57:09,495
2025-07-30 22:57:09,479
2025-07-30 22:57:09,437
2025-07-30 22:57:09,504
2025-07-30 22:57:09,501
2025-07-30 22:57:09,422
2025-07-30 22:57:09,463
2025-07-30 22:57:09,497
2025-07-30 22:57:09,453
2025-07-30 22:57:09,474
2025-07-30 22:57:09,479
2025-07-30 22:57:09,452
2025-07-30 22:57:09,475
2025-07-30 22:57:09,524
2025-07-30 22:57:09,456
2025-07-30 22:57:09,434
2025-07-30 22:57:09,492
2025-07-30 22:57:09,479
2025-07-30 22:57:09,454
2025-07-30 22:57:09,497
2025-07-30 22:57:09,477
2025-07-30 22:57:09,424
2025-07-30 22:57:09,446
2025-07-30 22:57:09,463
2025-07-30 22:57:09,415
2025-07-30 22:57:09,418
2025-07-30 22:57:09,430
2025-07-30 22:57:09,413
2025-07-30 22:57:09,407
2025-07-30 22:57:09,448
2025-07-30 22:57:09,412
2025-07-30 22:57:09,388
2025-07-30 22:57:09,438
2025-07-30 22:57:09,449
2025-07-30 22:57:09,377
2025-07-30 22:57:09,429
2025-07-30 22:57:09,483
2025-07-30 22:57:09,427
2025-07-30 22:57:09,414
2025-07-30 22:57:09,420
2025-07-30 22:57:09,359
2025-07-30 22:57:09,392
2025-07-30 22:57:09,417
2025-07-30 22:57:09,429
2025-07-30 22:57:09,413
2025-07-30 22:57:09,411
2025-07-30 22:57:09,408
2025-07-30 22:57:09,397
2025-07-30 22:57:09,441
2025-07-30 22:57:09,398
2025-07-30 22:57:09,385
2025-07-30 22:57:09,452
2025-07-30 22:57:09,465
2025-07-30 22:57:09,396
2025-07-30 22:57:09,410
2025-07-30 22:57:09,456
2025-07-30 22:57:09,474
2025-07-30 22:57:09,445
2025-07-30 22:57:09,419
2025-07-30 22:57:09,393
2025-07-30 22:57:09,404
2025-07-30 22:57:09,452
2025-07-30 22:57:09,396
2025-07-30 22:57:09,389
2025-07-30 22:57:09,407
2025-07-30 22:57:09,417
2025-07-30 22:57:09,382
2025-07-30 22:57:09,408
2025-07-30 22:57:09,400
2025-07-30 22:57:09,382
2025-07-30 22:57:09,413
2025-07-30 22:57:10,417
2025-07-30 22:57:10,368
2025-07-30 22:57:10,390
2025-07-30 22:57:10,436
2025-07-30 22:57:10,377
2025-07-30 22:57:10,408
2025-07-30 22:57:10,450
2025-07-30 22:57:10,355
2025-07-30 22:57:10,357
2025-07-30 22:57:10,387
2025-07-30 22:57:10,401
2025-07-30 22:57:10,417
2025-07-30 22:57:10,393
2025-07-30 22:57:10,372
2025-07-30 22:57:10,356
2025-07-30 22:57:10,376
2025-07-30 22:57:10,394
2025-07-30 22:57:10,340
2025-07-30 22:57:10,348
2025-07-30 22:57:10,434
2025-07-30 22:57:10,373
2025-07-30 22:57:10,349
2025-07-30 22:57:10,393
2025-07-30 22:57:10,384
2025-07-30 22:57:10,377
2025-07-30 22:57:10,469
2025-07-30 22:57:10,411
2025-07-30 22:57:10,348
2025-07-30 22:57:10,375
2025-07-30 22:57:10,411
2025-07-30 22:57:10,343
2025-07-30 22:57:10,359
2025-07-30 22:57:10,375
2025-07-30 22:57:10,354
2025-07-30 22:57:10,371
2025-07-30 22:57:10,454
2025-07-30 22:57:10,446
2025-07-30 22:57:10,392
2025-07-30 22:57:10,403
2025-07-30 22:57:10,393
2025-07-30 22:57:10,361
2025-07-30 22:57:10,392
2025-07-30 22:57:10,373
2025-07-30 22:57:10,356
2025-07-30 22:57:10,391
2025-07-30 22:57:10,415
2025-07-30 22:57:10,371
2025-07-30 22:57:10,422
2025-07-30 22:57:10,484
2025-07-30 22:57:10,413
2025-07-30 22:57:10,386
2025-07-30 22:57:10,402
2025-07-30 22:57:10,404
2025-07-30 22:57:10,359
2025-07-30 22:57:10,437
2025-07-30 22:57:10,434
2025-07-30 22:57:10,353
2025-07-30 22:57:10,399
2025-07-30 22:57:10,394
2025-07-30 22:57:10,337
2025-07-30 22:57:10,365
2025-07-30 22:57:10,417
2025-07-30 22:57:10,380
2025-07-30 22:57:10,365
2025-07-30 22:57:10,381
2025-07-30 22:57:10,321
2025-07-30 22:57:10,335
2025-07-30 22:57:10,368
2025-07-30 22:57:10,303
2025-07-30 22:57:10,321
2025-07-30 22:57:10,412
2025-07-30 22:57:10,353
2025-07-30 22:57:10,269
2025-07-30 22:57:10,326
2025-07-30 22:57:10,356
2025-07-30 22:57:10,293
2025-07-30 22:57:10,344
2025-07-30 22:57:10,360
2025-07-30 22:57:10,329
2025-07-30 22:57:10,355
2025-07-30 22:57:10,360
2025-07-30 22:57:10,329
2025-07-30 22:57:10,350
2025-07-30 22:57:10,410
2025-07-30 22:57:10,308
2025-07-30 22:57:10,309
2025-07-30 22:57:10,348
2025-07-30 22:57:10,368
2025-07-30 22:57:10,319
2025-07-30 22:57:10,370
2025-07-30 22:57:10,373
2025-07-30 22:57:10,309
2025-07-30 22:57:10,341
2025-07-30 22:57:10,381
2025-07-30 22:57:10,341
2025-07-30 22:57:10,328
2025-07-30 22:57:10,349
2025-07-30 22:57:10,355
2025-07-30 22:57:10,347
2025-07-30 22:57:10,369
2025-07-30 22:57:10,410
2025-07-30 22:57:10,352
2025-07-30 22:57:10,374
2025-07-30 22:57:10,347
2025-07-30 22:57:10,317
2025-07-30 22:57:10,395
2025-07-30 22:57:10,395
2025-07-30 22:57:10,315
2025-07-30 22:57:10,328
2025-07-30 22:57:10,373
2025-07-30 22:57:10,359
2025-07-30 22:57:10,366
2025-07-30 22:57:10,372
2025-07-30 22:57:10,383
2025-07-30 22:57:10,387
2025-07-30 22:57:10,419
2025-07-30 22:57:10,391
2025-07-30 22:57:10,368
2025-07-30 22:57:10,375
2025-07-30 22:57:10,395
2025-07-30 22:57:10,356
2025-07-30 22:57:10,402
2025-07-30 22:57:10,388
2025-07-30 22:57:10,342
2025-07-30 22:57:10,359
2025-07-30 22:57:10,393
2025-07-30 22:57:10,382
2025-07-30 22:57:10,377
2025-07-30 22:57:10,378
2025-07-30 22:57:10,369
2025-07-30 22:57:10,369
2025-07-30 22:57:10,398
2025-07-30 22:57:10,381
2025-07-30 22:57:10,333
2025-07-30 22:57:10,393
2025-07-30 22:57:10,402
2025-07-30 22:57:10,374
2025-07-30 22:57:10,370
2025-07-30 22:57:10,396
2025-07-30 22:57:10,356
2025-07-30 22:57:10,391
2025-07-30 22:57:10,459
2025-07-30 22:57:10,349
2025-07-30 22:57:10,343
2025-07-30 22:57:10,393
2025-07-30 22:57:10,371
2025-07-30 22:57:10,385
2025-07-30 22:57:10,382
2025-07-30 22:57:10,328
2025-07-30 22:57:10,316
2025-07-30 22:57:10,401
2025-07-30 22:57:10,367
2025-07-30 22:57:10,317
2025-07-30 22:57:10,381
2025-07-30 22:57:10,419
2025-07-30 22:57:10,356
2025-07-30 22:57:10,358
2025-07-30 22:57:10,359
2025-07-30 22:57:10,344
2025-07-30 22:57:10,376
2025-07-30 22:57:10,413
2025-07-30 22:57:10,315
2025-07-30 22:57:10,328
2025-07-30 22:57:10,409
2025-07-30 22:57:10,393
2025-07-30 22:57:10,338
2025-07-30 22:57:10,362
2025-07-30 22:57:10,382
2025-07-30 22:57:10,346
2025-07-30 22:57:10,363
2025-07-30 22:57:10,372
2025-07-30 22:57:10,376
2025-07-30 22:57:10,353
2025-07-30 22:57:10,360
2025-07-30 22:57:10,377
2025-07-30 22:57:10,341
2025-07-30 22:57:10,370
2025-07-30 22:57:10,366
2025-07-30 22:57:10,324
2025-07-30 22:57:10,352
2025-07-30 22:57:10,372
2025-07-30 22:57:10,345
2025-07-30 22:57:10,374
2025-07-30 22:57:10,370
2025-07-30 22:57:10,327
2025-07-30 22:57:10,384
2025-07-30 22:57:10,376
2025-07-30 22:57:10,316
2025-07-30 22:57:10,358
2025-07-30 22:57:10,400
2025-07-30 22:57:11,378
2025-07-30 22:57:11,375
2025-07-30 22:57:11,386
2025-07-30 22:57:11,362
2025-07-30 22:57:11,371
2025-07-30 22:57:11,422
2025-07-30 22:57:11,382
2025-07-30 22:57:11,361
2025-07-30 22:57:11,406
2025-07-30 22:57:11,411
2025-07-30 22:57:11,360
2025-07-30 22:57:11,389
2025-07-30 22:57:11,387
2025-07-30 22:57:11,360
2025-07-30 22:57:11,365
2025-07-30 22:57:11,400
2025-07-30 22:57:11,418
2025-07-30 22:57:11,428
2025-07-30 22:57:11,471
2025-07-30 22:57:11,458
2025-07-30 22:57:11,410
2025-07-30 22:57:11,433
2025-07-30 22:57:11,429
2025-07-30 22:57:11,400
2025-07-30 22:57:11,426
2025-07-30 22:57:11,439
2025-07-30 22:57:11,432
2025-07-30 22:57:11,453
2025-07-30 22:57:11,493
2025-07-30 22:57:11,431
2025-07-30 22:57:11,427
2025-07-30 22:57:11,459
2025-07-30 22:57:11,426
2025-07-30 22:57:11,412
2025-07-30 22:57:11,452
2025-07-30 22:57:11,446
2025-07-30 22:57:11,435
2025-07-30 22:57:11,467
2025-07-30 22:57:11,484
2025-07-30 22:57:11,438
2025-07-30 22:57:11,472
2025-07-30 22:57:11,460
2025-07-30 22:57:11,431
2025-07-30 22:57:11,464
2025-07-30 22:57:11,511
2025-07-30 22:57:11,427
2025-07-30 22:57:11,441
2025-07-30 22:57:11,481
2025-07-30 22:57:11,456
2025-07-30 22:57:11,430
2025-07-30 22:57:11,493
2025-07-30 22:57:11,524
2025-07-30 22:57:11,471
2025-07-30 22:57:11,485
2025-07-30 22:57:11,478
2025-07-30 22:57:11,488
2025-07-30 22:57:11,534
2025-07-30 22:57:11,541
2025-07-30 22:57:11,476
2025-07-30 22:57:11,493
2025-07-30 22:57:11,525
2025-07-30 22:57:11,502
2025-07-30 22:57:11,497
2025-07-30 22:57:11,541
2025-07-30 22:57:11,551
2025-07-30 22:57:11,494
2025-07-30 22:57:11,513
2025-07-30 22:57:11,480
2025-07-30 22:57:11,494
2025-07-30 22:57:11,547
2025-07-30 22:57:11,543
2025-07-30 22:57:11,512
2025-07-30 22:57:11,534
2025-07-30 22:57:11,532
2025-07-30 22:57:11,478
2025-07-30 22:57:11,510
2025-07-30 22:57:11,551
2025-07-30 22:57:11,513
2025-07-30 22:57:11,522
2025-07-30 22:57:11,557
2025-07-30 22:57:11,542
2025-07-30 22:57:11,549
2025-07-30 22:57:11,568
2025-07-30 22:57:11,531
2025-07-30 22:57:11,521
2025-07-30 22:57:11,571
2025-07-30 22:57:11,563
2025-07-30 22:57:11,505
2025-07-30 22:57:11,556
2025-07-30 22:57:11,561
2025-07-30 22:57:11,514
2025-07-30 22:57:11,542
2025-07-30 22:57:11,584
2025-07-30 22:57:11,558
2025-07-30 22:57:11,507
2025-07-30 22:57:11,582
2025-07-30 22:57:11,602
2025-07-30 22:57:11,549
2025-07-30 22:57:11,552
2025-07-30 22:57:11,563
2025-07-30 22:57:11,528
2025-07-30 22:57:11,558
2025-07-30 22:57:11,568
2025-07-30 22:57:11,516
2025-07-30 22:57:11,538
2025-07-30 22:57:11,566
2025-07-30 22:57:11,523
2025-07-30 22:57:11,586
2025-07-30 22:57:11,584
2025-07-30 22:57:11,514
2025-07-30 22:57:11,530
2025-07-30 22:57:11,571
2025-07-30 22:57:11,570
2025-07-30 22:57:11,502
2025-07-30 22:57:11,536
2025-07-30 22:57:11,538
2025-07-30 22:57:11,508
2025-07-30 22:57:11,548
2025-07-30 22:57:11,543
2025-07-30 22:57:11,491
2025-07-30 22:57:11,539
2025-07-30 22:57:11,597
2025-07-30 22:57:11,568
2025-07-30 22:57:11,551
2025-07-30 22:57:11,576
2025-07-30 22:57:11,554
2025-07-30 22:57:11,536
2025-07-30 22:57:11,556
2025-07-30 22:57:11,510
2025-07-30 22:57:11,480
2025-07-30 22:57:11,517
2025-07-30 22:57:11,512
2025-07-30 22:57:11,485
2025-07-30 22:57:11,525
2025-07-30 22:57:11,521
2025-07-30 22:57:11,462
2025-07-30 22:57:11,502
2025-07-30 22:57:11,530
2025-07-30 22:57:11,528
2025-07-30 22:57:11,540
2025-07-30 22:57:11,514
2025-07-30 22:57:11,472
2025-07-30 22:57:11,482
2025-07-30 22:57:11,536
2025-07-30 22:57:11,502
2025-07-30 22:57:11,460
2025-07-30 22:57:11,501
2025-07-30 22:57:11,524
2025-07-30 22:57:11,474
2025-07-30 22:57:11,509
2025-07-30 22:57:11,546
2025-07-30 22:57:11,465
2025-07-30 22:57:11,485
2025-07-30 22:57:11,529
2025-07-30 22:57:11,485
2025-07-30 22:57:11,471
2025-07-30 22:57:11,496
2025-07-30 22:57:11,447
2025-07-30 22:57:11,431
2025-07-30 22:57:11,514
2025-07-30 22:57:11,523
2025-07-30 22:57:11,504
2025-07-30 22:57:11,562
2025-07-30 22:57:11,570
2025-07-30 22:57:11,547
2025-07-30 22:57:11,602
2025-07-30 22:57:11,622
2025-07-30 22:57:11,547
2025-07-30 22:57:11,587
2025-07-30 22:57:11,631
2025-07-30 22:57:11,561
2025-07-30 22:57:11,551
2025-07-30 22:57:11,616
2025-07-30 22:57:11,607
2025-07-30 22:57:11,533
2025-07-30 22:57:11,524
2025-07-30 22:57:11,561
2025-07-30 22:57:11,541
2025-07-30 22:57:11,572
2025-07-30 22:57:11,577
2025-07-30 22:57:11,555
2025-07-30 22:57:11,549
2025-07-30 22:57:11,552
2025-07-30 22:57:11,515
2025-07-30 22:57:11,557
2025-07-30 22:57:11,543
2025-07-30 22:57:11,494
2025-07-30 22:57:11,496
2025-07-30 22:57:11,568
2025-07-30 22:57:11,582
2025-07-30 22:57:11,508
2025-07-30 22:57:11,516
2025-07-30 22:57:11,499
2025-07-30 22:57:11,500
2025-07-30 22:57:12,516
2025-07-30 22:57:12,515
2025-07-30 22:57:12,472
2025-07-30 22:57:12,519
2025-07-30 22:57:12,566
2025-07-30 22:57:12,520
2025-07-30 22:57:12,495
2025-07-30 22:57:12,545
2025-07-30 22:57:12,524
2025-07-30 22:57:12,506
2025-07-30 22:57:12,547
2025-07-30 22:57:12,507
2025-07-30 22:57:12,494
2025-07-30 22:57:12,523
2025-07-30 22:57:12,483
2025-07-30 22:57:12,444
2025-07-30 22:57:12,497
2025-07-30 22:57:12,512
2025-07-30 22:57:12,477
2025-07-30 22:57:12,484
2025-07-30 22:57:12,497
2025-07-30 22:57:12,448
2025-07-30 22:57:12,471
2025-07-30 22:57:12,541
2025-07-30 22:57:12,465
2025-07-30 22:57:12,449
2025-07-30 22:57:12,493
2025-07-30 22:57:12,474
2025-07-30 22:57:12,453
2025-07-30 22:57:12,495
2025-07-30 22:57:12,465
2025-07-30 22:57:12,440
2025-07-30 22:57:12,498
2025-07-30 22:57:12,503
2025-07-30 22:57:12,439
2025-07-30 22:57:12,449
2025-07-30 22:57:12,483
2025-07-30 22:57:12,468
2025-07-30 22:57:12,479
2025-07-30 22:57:12,511
2025-07-30 22:57:12,461
2025-07-30 22:57:12,426
2025-07-30 22:57:12,481
2025-07-30 22:57:12,444
2025-07-30 22:57:12,422
2025-07-30 22:57:12,454
2025-07-30 22:57:12,453
2025-07-30 22:57:12,439
2025-07-30 22:57:12,485
2025-07-30 22:57:12,506
2025-07-30 22:57:12,408
2025-07-30 22:57:12,440
2025-07-30 22:57:12,500
2025-07-30 22:57:12,450
2025-07-30 22:57:12,435
2025-07-30 22:57:12,452
2025-07-30 22:57:12,443
2025-07-30 22:57:12,461
2025-07-30 22:57:12,483
2025-07-30 22:57:12,413
2025-07-30 22:57:12,405
2025-07-30 22:57:12,485
2025-07-30 22:57:12,485
2025-07-30 22:57:12,424
2025-07-30 22:57:12,448
2025-07-30 22:57:12,467
2025-07-30 22:57:12,444
2025-07-30 22:57:12,519
2025-07-30 22:57:12,512
2025-07-30 22:57:12,407
2025-07-30 22:57:12,414
2025-07-30 22:57:12,505
2025-07-30 22:57:12,473
2025-07-30 22:57:12,425
2025-07-30 22:57:12,486
2025-07-30 22:57:12,448
2025-07-30 22:57:12,432
2025-07-30 22:57:12,472
2025-07-30 22:57:12,472
2025-07-30 22:57:12,456
2025-07-30 22:57:12,489
2025-07-30 22:57:12,518
2025-07-30 22:57:12,464
2025-07-30 22:57:12,458
2025-07-30 22:57:12,476
2025-07-30 22:57:12,425
2025-07-30 22:57:12,486
2025-07-30 22:57:12,532
2025-07-30 22:57:12,481
2025-07-30 22:57:12,462
2025-07-30 22:57:12,506
2025-07-30 22:57:12,499
2025-07-30 22:57:12,482
2025-07-30 22:57:12,506
2025-07-30 22:57:12,489
2025-07-30 22:57:12,452
2025-07-30 22:57:12,488
2025-07-30 22:57:12,513
2025-07-30 22:57:12,452
2025-07-30 22:57:12,491
2025-07-30 22:57:12,494
2025-07-30 22:57:12,503
2025-07-30 22:57:12,501
2025-07-30 22:57:12,517
2025-07-30 22:57:12,538
2025-07-30 22:57:12,507
2025-07-30 22:57:12,514
2025-07-30 22:57:12,492
2025-07-30 22:57:12,478
2025-07-30 22:57:12,504
2025-07-30 22:57:12,506
2025-07-30 22:57:12,448
2025-07-30 22:57:12,487
2025-07-30 22:57:12,511
2025-07-30 22:57:12,457
2025-07-30 22:57:12,469
2025-07-30 22:57:12,517
2025-07-30 22:57:12,500
2025-07-30 22:57:12,495
2025-07-30 22:57:12,527
2025-07-30 22:57:12,492
2025-07-30 22:57:12,463
2025-07-30 22:57:12,507
2025-07-30 22:57:12,493
2025-07-30 22:57:12,445
2025-07-30 22:57:12,474
2025-07-30 22:57:12,478
2025-07-30 22:57:12,439
2025-07-30 22:57:12,494
2025-07-30 22:57:12,487
2025-07-30 22:57:12,441
2025-07-30 22:57:12,472
2025-07-30 22:57:12,532
2025-07-30 22:57:12,478
2025-07-30 22:57:12,487
2025-07-30 22:57:12,505
2025-07-30 22:57:12,472
2025-07-30 22:57:12,436
2025-07-30 22:57:12,504
2025-07-30 22:57:12,435
2025-07-30 22:57:12,387
2025-07-30 22:57:12,444
2025-07-30 22:57:12,450
2025-07-30 22:57:12,415
2025-07-30 22:57:12,458
2025-07-30 22:57:12,523
2025-07-30 22:57:12,514
2025-07-30 22:57:12,477
2025-07-30 22:57:12,543
2025-07-30 22:57:12,599
2025-07-30 22:57:12,723
2025-07-30 22:57:12,653
2025-07-30 22:57:12,614
2025-07-30 22:57:12,607
2025-07-30 22:57:12,677
2025-07-30 22:57:12,742
2025-07-30 22:57:12,669
2025-07-30 22:57:12,725
2025-07-30 22:57:12,775
2025-07-30 22:57:12,769
2025-07-30 22:57:12,801
2025-07-30 22:57:12,828
2025-07-30 22:57:12,834
2025-07-30 22:57:12,854
2025-07-30 22:57:12,882
2025-07-30 22:57:12,842
2025-07-30 22:57:12,768
2025-07-30 22:57:12,823
2025-07-30 22:57:12,797
2025-07-30 22:57:12,753
2025-07-30 22:57:12,805
2025-07-30 22:57:12,788
2025-07-30 22:57:12,755
2025-07-30 22:57:12,809
2025-07-30 22:57:12,823
2025-07-30 22:57:12,782
2025-07-30 22:57:12,826
2025-07-30 22:57:12,804
2025-07-30 22:57:12,755
2025-07-30 22:57:12,740
2025-07-30 22:57:12,799
2025-07-30 22:57:12,768
2025-07-30 22:57:12,730
2025-07-30 22:57:12,763
2025-07-30 22:57:12,756
2025-07-30 22:57:12,729
2025-07-30 22:57:12,807
2025-07-30 22:57:12,758
2025-07-30 22:57:12,721
2025-07-30 22:57:12,794
2025-07-30 22:57:13,871
2025-07-30 22:57:13,746
2025-07-30 22:57:13,739
2025-07-30 22:57:13,770
2025-07-30 22:57:13,746
2025-07-30 22:57:13,766
2025-07-30 22:57:13,787
2025-07-30 22:57:13,734
2025-07-30 22:57:13,732
2025-07-30 22:57:13,792
2025-07-30 22:57:13,766
2025-07-30 22:57:13,728
2025-07-30 22:57:13,785
2025-07-30 22:57:13,828
2025-07-30 22:57:13,740
2025-07-30 22:57:13,761
2025-07-30 22:57:13,761
2025-07-30 22:57:13,711
2025-07-30 22:57:13,799
2025-07-30 22:57:13,784
2025-07-30 22:57:13,692
2025-07-30 22:57:13,705
2025-07-30 22:57:13,769
2025-07-30 22:57:13,746
2025-07-30 22:57:13,722
2025-07-30 22:57:13,773
2025-07-30 22:57:13,748
2025-07-30 22:57:13,699
2025-07-30 22:57:13,770
2025-07-30 22:57:13,735
2025-07-30 22:57:13,666
2025-07-30 22:57:13,692
2025-07-30 22:57:13,775
2025-07-30 22:57:13,687
2025-07-30 22:57:13,637
2025-07-30 22:57:13,666
2025-07-30 22:57:13,647
2025-07-30 22:57:13,667
2025-07-30 22:57:13,667
2025-07-30 22:57:13,622
2025-07-30 22:57:13,618
2025-07-30 22:57:13,682
2025-07-30 22:57:13,665
2025-07-30 22:57:13,620
2025-07-30 22:57:13,636
2025-07-30 22:57:13,639
2025-07-30 22:57:13,577
2025-07-30 22:57:13,608
2025-07-30 22:57:13,616
2025-07-30 22:57:13,605
2025-07-30 22:57:13,597
2025-07-30 22:57:13,600
2025-07-30 22:57:13,634
2025-07-30 22:57:13,554
2025-07-30 22:57:13,574
2025-07-30 22:57:13,558
2025-07-30 22:57:13,543
2025-07-30 22:57:13,597
2025-07-30 22:57:13,598
2025-07-30 22:57:13,529
2025-07-30 22:57:13,603
2025-07-30 22:57:13,682
2025-07-30 22:57:13,507
2025-07-30 22:57:13,525
2025-07-30 22:57:13,592
2025-07-30 22:57:13,571
2025-07-30 22:57:13,587
2025-07-30 22:57:13,577
2025-07-30 22:57:13,534
2025-07-30 22:57:13,539
2025-07-30 22:57:13,618
2025-07-30 22:57:13,607
2025-07-30 22:57:13,602
2025-07-30 22:57:13,559
2025-07-30 22:57:13,541
2025-07-30 22:57:13,526
2025-07-30 22:57:13,601
2025-07-30 22:57:13,606
2025-07-30 22:57:13,548
2025-07-30 22:57:13,569
2025-07-30 22:57:13,650
2025-07-30 22:57:13,561
2025-07-30 22:57:13,552
2025-07-30 22:57:13,609
2025-07-30 22:57:13,572
2025-07-30 22:57:13,552
2025-07-30 22:57:13,603
2025-07-30 22:57:13,599
2025-07-30 22:57:13,608
2025-07-30 22:57:13,561
2025-07-30 22:57:13,574
2025-07-30 22:57:13,582
2025-07-30 22:57:13,636
2025-07-30 22:57:13,589
2025-07-30 22:57:13,528
2025-07-30 22:57:13,610
2025-07-30 22:57:13,633
2025-07-30 22:57:13,520
2025-07-30 22:57:13,532
2025-07-30 22:57:13,589
2025-07-30 22:57:13,564
2025-07-30 22:57:13,561
2025-07-30 22:57:13,610
2025-07-30 22:57:13,562
2025-07-30 22:57:13,539
2025-07-30 22:57:13,603
2025-07-30 22:57:13,652
2025-07-30 22:57:13,538
2025-07-30 22:57:13,527
2025-07-30 22:57:13,549
2025-07-30 22:57:13,537
2025-07-30 22:57:13,528
2025-07-30 22:57:13,532
2025-07-30 22:57:13,501
2025-07-30 22:57:13,503
2025-07-30 22:57:13,571
2025-07-30 22:57:13,539
2025-07-30 22:57:13,501
2025-07-30 22:57:13,556
2025-07-30 22:57:13,601
2025-07-30 22:57:13,529
2025-07-30 22:57:13,532
2025-07-30 22:57:13,532
2025-07-30 22:57:13,475
2025-07-30 22:57:13,515
2025-07-30 22:57:13,538
2025-07-30 22:57:13,482
2025-07-30 22:57:13,514
2025-07-30 22:57:13,527
2025-07-30 22:57:13,465
2025-07-30 22:57:13,469
2025-07-30 22:57:13,536
2025-07-30 22:57:13,563
2025-07-30 22:57:13,494
2025-07-30 22:57:13,511
2025-07-30 22:57:13,506
2025-07-30 22:57:13,530
2025-07-30 22:57:13,510
2025-07-30 22:57:13,506
2025-07-30 22:57:13,486
2025-07-30 22:57:13,589
2025-07-30 22:57:13,518
2025-07-30 22:57:13,435
2025-07-30 22:57:13,472
2025-07-30 22:57:13,522
2025-07-30 22:57:13,495
2025-07-30 22:57:13,510
2025-07-30 22:57:13,551
2025-07-30 22:57:13,543
2025-07-30 22:57:13,471
2025-07-30 22:57:13,496
2025-07-30 22:57:13,485
2025-07-30 22:57:13,473
2025-07-30 22:57:13,515
2025-07-30 22:57:13,506
2025-07-30 22:57:13,448
2025-07-30 22:57:13,486
2025-07-30 22:57:13,524
2025-07-30 22:57:13,499
2025-07-30 22:57:13,555
2025-07-30 22:57:13,537
2025-07-30 22:57:13,502
2025-07-30 22:57:13,489
2025-07-30 22:57:13,522
2025-07-30 22:57:13,530
2025-07-30 22:57:13,484
2025-07-30 22:57:13,536
2025-07-30 22:57:13,514
2025-07-30 22:57:13,466
2025-07-30 22:57:13,509
2025-07-30 22:57:13,521
2025-07-30 22:57:13,490
2025-07-30 22:57:13,536
2025-07-30 22:57:13,615
2025-07-30 22:57:13,578
2025-07-30 22:57:13,490
2025-07-30 22:57:13,504
2025-07-30 22:57:13,490
2025-07-30 22:57:13,478
2025-07-30 22:57:13,521
2025-07-30 22:57:13,513
2025-07-30 22:57:13,470
2025-07-30 22:57:13,519
2025-07-30 22:57:13,487
2025-07-30 22:57:13,448
2025-07-30 22:57:13,501
2025-07-30 22:57:13,523
2025-07-30 22:57:13,521
2025-07-30 22:57:13,479
2025-07-30 22:57:13,511
2025-07-30 22:57:13,509
2025-07-30 22:57:13,519
2025-07-30 22:57:13,557
2025-07-30 22:57:13,502
2025-07-30 22:57:14,456
2025-07-30 22:57:14,538
2025-07-30 22:57:14,544
2025-07-30 22:57:14,527
2025-07-30 22:57:14,579
2025-07-30 22:57:14,559
2025-07-30 22:57:14,544
2025-07-30 22:57:14,602
2025-07-30 22:57:14,612
2025-07-30 22:57:14,559
2025-07-30 22:57:14,567
2025-07-30 22:57:14,630
2025-07-30 22:57:14,630
2025-07-30 22:57:14,560
2025-07-30 22:57:14,565
2025-07-30 22:57:14,551
2025-07-30 22:57:14,550
2025-07-30 22:57:14,598
2025-07-30 22:57:14,547
2025-07-30 22:57:14,527
2025-07-30 22:57:14,610
2025-07-30 22:57:14,577
2025-07-30 22:57:14,521
2025-07-30 22:57:14,557
2025-07-30 22:57:14,575
2025-07-30 22:57:14,522
2025-07-30 22:57:14,548
2025-07-30 22:57:14,586
2025-07-30 22:57:14,544
2025-07-30 22:57:14,552
2025-07-30 22:57:14,517
2025-07-30 22:57:14,501
2025-07-30 22:57:14,554
2025-07-30 22:57:14,570
2025-07-30 22:57:14,507
2025-07-30 22:57:14,480
2025-07-30 22:57:14,549
2025-07-30 22:57:14,568
2025-07-30 22:57:14,490
2025-07-30 22:57:14,497
2025-07-30 22:57:14,570
2025-07-30 22:57:14,485
2025-07-30 22:57:14,476
2025-07-30 22:57:14,513
2025-07-30 22:57:14,530
2025-07-30 22:57:14,481
2025-07-30 22:57:14,498
2025-07-30 22:57:14,466
2025-07-30 22:57:14,476
2025-07-30 22:57:14,536
2025-07-30 22:57:14,501
2025-07-30 22:57:14,464
2025-07-30 22:57:14,506
2025-07-30 22:57:14,586
2025-07-30 22:57:14,472
2025-07-30 22:57:14,464
2025-07-30 22:57:14,506
2025-07-30 22:57:14,500
2025-07-30 22:57:14,490
2025-07-30 22:57:14,524
2025-07-30 22:57:14,470
2025-07-30 22:57:14,447
2025-07-30 22:57:14,490
2025-07-30 22:57:14,486
2025-07-30 22:57:14,475
2025-07-30 22:57:14,508
2025-07-30 22:57:14,473
2025-07-30 22:57:14,433
2025-07-30 22:57:14,493
2025-07-30 22:57:14,481
2025-07-30 22:57:14,418
2025-07-30 22:57:14,488
2025-07-30 22:57:14,476
2025-07-30 22:57:14,422
2025-07-30 22:57:14,425
2025-07-30 22:57:14,498
2025-07-30 22:57:14,411
2025-07-30 22:57:14,390
2025-07-30 22:57:14,436
2025-07-30 22:57:14,403
2025-07-30 22:57:14,409
2025-07-30 22:57:14,514
2025-07-30 22:57:14,411
2025-07-30 22:57:14,353
2025-07-30 22:57:14,411
2025-07-30 22:57:14,436
2025-07-30 22:57:14,400
2025-07-30 22:57:14,437
2025-07-30 22:57:14,410
2025-07-30 22:57:14,345
2025-07-30 22:57:14,388
2025-07-30 22:57:14,447
2025-07-30 22:57:14,363
2025-07-30 22:57:14,361
2025-07-30 22:57:14,429
2025-07-30 22:57:14,392
2025-07-30 22:57:14,353
2025-07-30 22:57:14,411
2025-07-30 22:57:14,433
2025-07-30 22:57:14,401
2025-07-30 22:57:14,407
2025-07-30 22:57:14,425
2025-07-30 22:57:14,364
2025-07-30 22:57:14,390
2025-07-30 22:57:14,425
2025-07-30 22:57:14,399
2025-07-30 22:57:14,398
2025-07-30 22:57:14,401
2025-07-30 22:57:14,367
2025-07-30 22:57:14,371
2025-07-30 22:57:14,418
2025-07-30 22:57:14,424
2025-07-30 22:57:14,381
2025-07-30 22:57:14,413
2025-07-30 22:57:14,443
2025-07-30 22:57:14,419
2025-07-30 22:57:14,430
2025-07-30 22:57:14,424
2025-07-30 22:57:14,388
2025-07-30 22:57:14,411
2025-07-30 22:57:14,429
2025-07-30 22:57:14,384
2025-07-30 22:57:14,396
2025-07-30 22:57:14,444
2025-07-30 22:57:14,415
2025-07-30 22:57:14,415
2025-07-30 22:57:14,429
2025-07-30 22:57:14,383
2025-07-30 22:57:14,365
2025-07-30 22:57:14,413
2025-07-30 22:57:14,405
2025-07-30 22:57:14,360
2025-07-30 22:57:14,400
2025-07-30 22:57:14,405
2025-07-30 22:57:14,339
2025-07-30 22:57:14,386
2025-07-30 22:57:14,382
2025-07-30 22:57:14,348
2025-07-30 22:57:14,377
2025-07-30 22:57:14,410
2025-07-30 22:57:14,358
2025-07-30 22:57:14,349
2025-07-30 22:57:14,414
2025-07-30 22:57:14,403
2025-07-30 22:57:14,369
2025-07-30 22:57:14,382
2025-07-30 22:57:14,376
2025-07-30 22:57:14,355
2025-07-30 22:57:14,388
2025-07-30 22:57:14,376
2025-07-30 22:57:14,333
2025-07-30 22:57:14,366
2025-07-30 22:57:14,411
2025-07-30 22:57:14,377
2025-07-30 22:57:14,381
2025-07-30 22:57:14,412
2025-07-30 22:57:14,383
2025-07-30 22:57:14,422
2025-07-30 22:57:14,436
2025-07-30 22:57:14,402
2025-07-30 22:57:14,369
2025-07-30 22:57:14,427
2025-07-30 22:57:14,429
2025-07-30 22:57:14,372
2025-07-30 22:57:14,408
2025-07-30 22:57:14,431
2025-07-30 22:57:14,385
2025-07-30 22:57:14,402
2025-07-30 22:57:14,440
2025-07-30 22:57:14,409
2025-07-30 22:57:14,423
2025-07-30 22:57:14,473
2025-07-30 22:57:14,398
2025-07-30 22:57:14,377
2025-07-30 22:57:14,496
2025-07-30 22:57:14,424
2025-07-30 22:57:14,382
2025-07-30 22:57:14,445
2025-07-30 22:57:14,474
2025-07-30 22:57:14,422
2025-07-30 22:57:14,463
2025-07-30 22:57:14,492
2025-07-30 22:57:14,429
2025-07-30 22:57:14,457
2025-07-30 22:57:14,510
2025-07-30 22:57:14,470
2025-07-30 22:57:14,448
2025-07-30 22:57:14,518
2025-07-30 22:57:14,453
2025-07-30 22:57:14,414
2025-07-30 22:57:14,478
2025-07-30 22:57:14,480
2025-07-30 22:57:14,464
2025-07-30 22:57:15,494
2025-07-30 22:57:15,483
2025-07-30 22:57:15,441
2025-07-30 22:57:15,480
2025-07-30 22:57:15,519
2025-07-30 22:57:15,476
2025-07-30 22:57:15,494
2025-07-30 22:57:15,562
2025-07-30 22:57:15,479
2025-07-30 22:57:15,471
2025-07-30 22:57:15,534
2025-07-30 22:57:15,463
2025-07-30 22:57:15,421
2025-07-30 22:57:15,480
2025-07-30 22:57:15,481
2025-07-30 22:57:15,445
2025-07-30 22:57:15,490
2025-07-30 22:57:15,496
2025-07-30 22:57:15,463
2025-07-30 22:57:15,488
2025-07-30 22:57:15,486
2025-07-30 22:57:15,419
2025-07-30 22:57:15,442
2025-07-30 22:57:15,516
2025-07-30 22:57:15,459
2025-07-30 22:57:15,429
2025-07-30 22:57:15,463
2025-07-30 22:57:15,456
2025-07-30 22:57:15,431
2025-07-30 22:57:15,472
2025-07-30 22:57:15,459
2025-07-30 22:57:15,423
2025-07-30 22:57:15,442
2025-07-30 22:57:15,452
2025-07-30 22:57:15,419
2025-07-30 22:57:15,444
2025-07-30 22:57:15,490
2025-07-30 22:57:15,409
2025-07-30 22:57:15,432
2025-07-30 22:57:15,515
2025-07-30 22:57:15,472
2025-07-30 22:57:15,434
2025-07-30 22:57:15,478
2025-07-30 22:57:15,448
2025-07-30 22:57:15,416
2025-07-30 22:57:15,464
2025-07-30 22:57:15,470
2025-07-30 22:57:15,443
2025-07-30 22:57:15,488
2025-07-30 22:57:15,477
2025-07-30 22:57:15,427
2025-07-30 22:57:15,472
2025-07-30 22:57:15,518
2025-07-30 22:57:15,477
2025-07-30 22:57:15,476
2025-07-30 22:57:15,524
2025-07-30 22:57:15,505
2025-07-30 22:57:15,457
2025-07-30 22:57:15,493
2025-07-30 22:57:15,469
2025-07-30 22:57:15,444
2025-07-30 22:57:15,494
2025-07-30 22:57:15,496
2025-07-30 22:57:15,452
2025-07-30 22:57:15,482
2025-07-30 22:57:15,501
2025-07-30 22:57:15,459
2025-07-30 22:57:15,459
2025-07-30 22:57:15,499
2025-07-30 22:57:15,466
2025-07-30 22:57:15,469
2025-07-30 22:57:15,494
2025-07-30 22:57:15,458
2025-07-30 22:57:15,413
2025-07-30 22:57:15,450
2025-07-30 22:57:15,438
2025-07-30 22:57:15,410
2025-07-30 22:57:15,443
2025-07-30 22:57:15,446
2025-07-30 22:57:15,395
2025-07-30 22:57:15,442
2025-07-30 22:57:15,451
2025-07-30 22:57:15,374
2025-07-30 22:57:15,402
2025-07-30 22:57:15,472
2025-07-30 22:57:15,414
2025-07-30 22:57:15,356
2025-07-30 22:57:15,398
2025-07-30 22:57:15,387
2025-07-30 22:57:15,388
2025-07-30 22:57:15,416
2025-07-30 22:57:15,395
2025-07-30 22:57:15,360
2025-07-30 22:57:15,408
2025-07-30 22:57:15,419
2025-07-30 22:57:15,369
2025-07-30 22:57:15,409
2025-07-30 22:57:15,456
2025-07-30 22:57:15,410
2025-07-30 22:57:15,398
2025-07-30 22:57:15,428
2025-07-30 22:57:15,383
2025-07-30 22:57:15,384
2025-07-30 22:57:15,447
2025-07-30 22:57:15,427
2025-07-30 22:57:15,391
2025-07-30 22:57:15,443
2025-07-30 22:57:15,441
2025-07-30 22:57:15,378
2025-07-30 22:57:15,423
2025-07-30 22:57:15,446
2025-07-30 22:57:15,450
2025-07-30 22:57:15,436
2025-07-30 22:57:15,438
2025-07-30 22:57:15,409
2025-07-30 22:57:15,428
2025-07-30 22:57:15,481
2025-07-30 22:57:15,433
2025-07-30 22:57:15,390
2025-07-30 22:57:15,451
2025-07-30 22:57:15,432
2025-07-30 22:57:15,405
2025-07-30 22:57:15,463
2025-07-30 22:57:15,452
2025-07-30 22:57:15,431
2025-07-30 22:57:15,467
2025-07-30 22:57:15,452
2025-07-30 22:57:15,390
2025-07-30 22:57:15,409
2025-07-30 22:57:15,465
2025-07-30 22:57:15,404
2025-07-30 22:57:15,408
2025-07-30 22:57:15,452
2025-07-30 22:57:15,408
2025-07-30 22:57:15,390
2025-07-30 22:57:15,447
2025-07-30 22:57:15,432
2025-07-30 22:57:15,415
2025-07-30 22:57:15,448
2025-07-30 22:57:15,434
2025-07-30 22:57:15,395
2025-07-30 22:57:15,442
2025-07-30 22:57:15,457
2025-07-30 22:57:15,408
2025-07-30 22:57:15,412
2025-07-30 22:57:15,442
2025-07-30 22:57:15,391
2025-07-30 22:57:15,393
2025-07-30 22:57:15,445
2025-07-30 22:57:15,414
2025-07-30 22:57:15,390
2025-07-30 22:57:15,441
2025-07-30 22:57:15,451
2025-07-30 22:57:15,372
2025-07-30 22:57:15,416
2025-07-30 22:57:15,427
2025-07-30 22:57:15,406
2025-07-30 22:57:15,435
2025-07-30 22:57:15,431
2025-07-30 22:57:15,372
2025-07-30 22:57:15,407
2025-07-30 22:57:15,451
2025-07-30 22:57:15,416
2025-07-30 22:57:15,424
2025-07-30 22:57:15,473
2025-07-30 22:57:15,424
2025-07-30 22:57:15,420
2025-07-30 22:57:15,491
2025-07-30 22:57:15,451
2025-07-30 22:57:15,432
2025-07-30 22:57:15,497
2025-07-30 22:57:15,490
2025-07-30 22:57:15,430
2025-07-30 22:57:15,475
2025-07-30 22:57:15,502
2025-07-30 22:57:15,460
2025-07-30 22:57:15,509
2025-07-30 22:57:15,550
2025-07-30 22:57:15,495
2025-07-30 22:57:15,487
2025-07-30 22:57:15,550
2025-07-30 22:57:15,543
2025-07-30 22:57:15,490
2025-07-30 22:57:15,548
2025-07-30 22:57:15,541
2025-07-30 22:57:15,517
2025-07-30 22:57:15,592
2025-07-30 22:57:15,600
2025-07-30 22:57:15,527
2025-07-30 22:57:15,567
2025-07-30 22:57:15,609
2025-07-30 22:57:16,552
2025-07-30 22:57:16,573
2025-07-30 22:57:16,613
2025-07-30 22:57:16,565
2025-07-30 22:57:16,569
2025-07-30 22:57:16,623
2025-07-30 22:57:16,597
2025-07-30 22:57:16,564
2025-07-30 22:57:16,612
2025-07-30 22:57:16,611
2025-07-30 22:57:16,570
2025-07-30 22:57:16,604
2025-07-30 22:57:16,602
2025-07-30 22:57:16,550
2025-07-30 22:57:16,598
2025-07-30 22:57:16,636
2025-07-30 22:57:16,569
2025-07-30 22:57:16,578
2025-07-30 22:57:16,627
2025-07-30 22:57:16,593
2025-07-30 22:57:16,575
2025-07-30 22:57:16,620
2025-07-30 22:57:16,601
2025-07-30 22:57:16,578
2025-07-30 22:57:16,639
2025-07-30 22:57:16,642
2025-07-30 22:57:16,575
2025-07-30 22:57:16,608
2025-07-30 22:57:16,614
2025-07-30 22:57:16,560
2025-07-30 22:57:16,607
2025-07-30 22:57:16,643
2025-07-30 22:57:16,579
2025-07-30 22:57:16,581
2025-07-30 22:57:16,619
2025-07-30 22:57:16,577
2025-07-30 22:57:16,596
2025-07-30 22:57:16,634
2025-07-30 22:57:16,614
2025-07-30 22:57:16,542
2025-07-30 22:57:16,576
2025-07-30 22:57:16,579
2025-07-30 22:57:16,553
2025-07-30 22:57:16,592
2025-07-30 22:57:16,602
2025-07-30 22:57:16,569
2025-07-30 22:57:16,604
2025-07-30 22:57:16,613
2025-07-30 22:57:16,576
2025-07-30 22:57:16,545
2025-07-30 22:57:16,591
2025-07-30 22:57:16,531
2025-07-30 22:57:16,514
2025-07-30 22:57:16,569
2025-07-30 22:57:16,543
2025-07-30 22:57:16,514
2025-07-30 22:57:16,568
2025-07-30 22:57:16,561
2025-07-30 22:57:16,521
2025-07-30 22:57:16,571
2025-07-30 22:57:16,589
2025-07-30 22:57:16,538
2025-07-30 22:57:16,540
2025-07-30 22:57:16,588
2025-07-30 22:57:16,533
2025-07-30 22:57:16,536
2025-07-30 22:57:16,580
2025-07-30 22:57:16,542
2025-07-30 22:57:16,520
2025-07-30 22:57:16,570
2025-07-30 22:57:16,543
2025-07-30 22:57:16,511
2025-07-30 22:57:16,564
2025-07-30 22:57:16,568
2025-07-30 22:57:16,517
2025-07-30 22:57:16,555
2025-07-30 22:57:16,571
2025-07-30 22:57:16,516
2025-07-30 22:57:16,545
2025-07-30 22:57:16,575
2025-07-30 22:57:16,526
2025-07-30 22:57:16,529
2025-07-30 22:57:16,587
2025-07-30 22:57:16,549
2025-07-30 22:57:16,523
2025-07-30 22:57:16,584
2025-07-30 22:57:16,581
2025-07-30 22:57:16,526
2025-07-30 22:57:16,568
2025-07-30 22:57:16,557
2025-07-30 22:57:16,520
2025-07-30 22:57:16,567
2025-07-30 22:57:16,594
2025-07-30 22:57:16,529
2025-07-30 22:57:16,573
2025-07-30 22:57:16,611
2025-07-30 22:57:16,568
2025-07-30 22:57:16,576
2025-07-30 22:57:16,618
2025-07-30 22:57:16,583
2025-07-30 22:57:16,573
2025-07-30 22:57:16,619
2025-07-30 22:57:16,600
2025-07-30 22:57:16,557
2025-07-30 22:57:16,607
2025-07-30 22:57:16,613
2025-07-30 22:57:16,560
2025-07-30 22:57:16,584
2025-07-30 22:57:16,603
2025-07-30 22:57:16,571
2025-07-30 22:57:16,575
2025-07-30 22:57:16,582
2025-07-30 22:57:16,548
2025-07-30 22:57:16,551
2025-07-30 22:57:16,604
2025-07-30 22:57:16,566
2025-07-30 22:57:16,538
2025-07-30 22:57:16,590
2025-07-30 22:57:16,604
2025-07-30 22:57:16,529
2025-07-30 22:57:16,549
2025-07-30 22:57:16,575
2025-07-30 22:57:16,546
2025-07-30 22:57:16,583
2025-07-30 22:57:16,610
2025-07-30 22:57:16,558
2025-07-30 22:57:16,553
2025-07-30 22:57:16,607
2025-07-30 22:57:16,567
2025-07-30 22:57:16,541
2025-07-30 22:57:16,577
2025-07-30 22:57:16,566
2025-07-30 22:57:16,515
2025-07-30 22:57:16,577
2025-07-30 22:57:16,559
2025-07-30 22:57:16,528
2025-07-30 22:57:16,581
2025-07-30 22:57:16,617
2025-07-30 22:57:16,550
2025-07-30 22:57:16,599
2025-07-30 22:57:16,634
2025-07-30 22:57:16,550
2025-07-30 22:57:16,559
2025-07-30 22:57:16,625
2025-07-30 22:57:16,589
2025-07-30 22:57:16,586
2025-07-30 22:57:16,633
2025-07-30 22:57:16,607
2025-07-30 22:57:16,577
2025-07-30 22:57:16,639
2025-07-30 22:57:16,636
2025-07-30 22:57:16,605
2025-07-30 22:57:16,646
2025-07-30 22:57:16,646
2025-07-30 22:57:16,595
2025-07-30 22:57:16,617
2025-07-30 22:57:16,638
2025-07-30 22:57:16,585
2025-07-30 22:57:16,596
2025-07-30 22:57:16,645
2025-07-30 22:57:16,604
2025-07-30 22:57:16,591
2025-07-30 22:57:16,648
2025-07-30 22:57:16,624
2025-07-30 22:57:16,598
2025-07-30 22:57:16,657
2025-07-30 22:57:16,636
2025-07-30 22:57:16,590
2025-07-30 22:57:16,606
2025-07-30 22:57:16,621
2025-07-30 22:57:16,574
2025-07-30 22:57:16,611
2025-07-30 22:57:16,630
2025-07-30 22:57:16,576
2025-07-30 22:57:16,587
2025-07-30 22:57:16,650
2025-07-30 22:57:16,617
2025-07-30 22:57:16,576
2025-07-30 22:57:16,643
2025-07-30 22:57:16,606
2025-07-30 22:57:16,557
2025-07-30 22:57:16,610
2025-07-30 22:57:16,621
2025-07-30 22:57:16,550
2025-07-30 22:57:16,598
2025-07-30 22:57:16,631
2025-07-30 22:57:16,583
2025-07-30 22:57:16,610
2025-07-30 22:57:16,637
2025-07-30 22:57:16,582
2025-07-30 22:57:16,591
2025-07-30 22:57:16,632
2025-07-30 22:57:16,576
2025-07-30 22:57:16,567
2025-07-30 22:57:17,620
2025-07-30 22:57:17,605
2025-07-30 22:57:17,558
2025-07-30 22:57:17,609
2025-07-30 22:57:17,602
2025-07-30 22:57:17,545
2025-07-30 22:57:17,591
2025-07-30 22:57:17,627
2025-07-30 22:57:17,549
2025-07-30 22:57:17,559
2025-07-30 22:57:17,605
2025-07-30 22:57:17,558
2025-07-30 22:57:17,557
2025-07-30 22:57:17,632
2025-07-30 22:57:17,568
2025-07-30 22:57:17,530
2025-07-30 22:57:17,593
2025-07-30 22:57:17,593
2025-07-30 22:57:17,534
2025-07-30 22:57:17,575
2025-07-30 22:57:17,613
2025-07-30 22:57:17,562
2025-07-30 22:57:17,572
2025-07-30 22:57:17,593
2025-07-30 22:57:17,545
2025-07-30 22:57:17,569
2025-07-30 22:57:17,602
2025-07-30 22:57:17,562
2025-07-30 22:57:17,584
2025-07-30 22:57:17,606
2025-07-30 22:57:17,540
2025-07-30 22:57:17,511
2025-07-30 22:57:17,567
2025-07-30 22:57:17,567
2025-07-30 22:57:17,532
2025-07-30 22:57:17,589
2025-07-30 22:57:17,609
2025-07-30 22:57:17,554
2025-07-30 22:57:17,596
2025-07-30 22:57:17,588
2025-07-30 22:57:17,536
2025-07-30 22:57:17,546
2025-07-30 22:57:17,590
2025-07-30 22:57:17,531
2025-07-30 22:57:17,535
2025-07-30 22:57:17,593
2025-07-30 22:57:17,560
2025-07-30 22:57:17,522
2025-07-30 22:57:17,574
2025-07-30 22:57:17,569
2025-07-30 22:57:17,533
2025-07-30 22:57:17,582
2025-07-30 22:57:17,580
2025-07-30 22:57:17,518
2025-07-30 22:57:17,536
2025-07-30 22:57:17,571
2025-07-30 22:57:17,512
2025-07-30 22:57:17,533
2025-07-30 22:57:17,579
2025-07-30 22:57:17,528
2025-07-30 22:57:17,516
2025-07-30 22:57:17,574
2025-07-30 22:57:17,545
2025-07-30 22:57:17,515
2025-07-30 22:57:17,573
2025-07-30 22:57:17,569
2025-07-30 22:57:17,513
2025-07-30 22:57:17,547
2025-07-30 22:57:17,559
2025-07-30 22:57:17,498
2025-07-30 22:57:17,524
2025-07-30 22:57:17,566
2025-07-30 22:57:17,516
2025-07-30 22:57:17,521
2025-07-30 22:57:17,563
2025-07-30 22:57:17,527
2025-07-30 22:57:17,504
2025-07-30 22:57:17,575
2025-07-30 22:57:17,535
2025-07-30 22:57:17,498
2025-07-30 22:57:17,553
2025-07-30 22:57:17,557
2025-07-30 22:57:17,496
2025-07-30 22:57:17,541
2025-07-30 22:57:17,549
2025-07-30 22:57:17,512
2025-07-30 22:57:17,536
2025-07-30 22:57:17,567
2025-07-30 22:57:17,523
2025-07-30 22:57:17,530
2025-07-30 22:57:17,574
2025-07-30 22:57:17,542
2025-07-30 22:57:17,534
2025-07-30 22:57:17,583
2025-07-30 22:57:17,554
2025-07-30 22:57:17,519
2025-07-30 22:57:17,592
2025-07-30 22:57:17,581
2025-07-30 22:57:17,510
2025-07-30 22:57:17,551
2025-07-30 22:57:17,588
2025-07-30 22:57:17,533
2025-07-30 22:57:17,542
2025-07-30 22:57:17,578
2025-07-30 22:57:17,539
2025-07-30 22:57:17,550
2025-07-30 22:57:17,579
2025-07-30 22:57:17,548
2025-07-30 22:57:17,541
2025-07-30 22:57:17,564
2025-07-30 22:57:17,545
2025-07-30 22:57:17,517
2025-07-30 22:57:17,557
2025-07-30 22:57:17,566
2025-07-30 22:57:17,506
2025-07-30 22:57:17,543
2025-07-30 22:57:17,568
2025-07-30 22:57:17,521
2025-07-30 22:57:17,558
2025-07-30 22:57:17,584
2025-07-30 22:57:17,536
2025-07-30 22:57:17,525
2025-07-30 22:57:17,570
2025-07-30 22:57:17,538
2025-07-30 22:57:17,506
2025-07-30 22:57:17,578
2025-07-30 22:57:17,575
2025-07-30 22:57:17,501
2025-07-30 22:57:17,552
2025-07-30 22:57:17,565
2025-07-30 22:57:17,516
2025-07-30 22:57:17,552
2025-07-30 22:57:17,571
2025-07-30 22:57:17,509
2025-07-30 22:57:17,521
2025-07-30 22:57:17,572
2025-07-30 22:57:17,507
2025-07-30 22:57:17,513
2025-07-30 22:57:17,569
2025-07-30 22:57:17,531
2025-07-30 22:57:17,537
2025-07-30 22:57:17,547
2025-07-30 22:57:17,528
2025-07-30 22:57:17,493
2025-07-30 22:57:17,560
2025-07-30 22:57:17,580
2025-07-30 22:57:17,521
2025-07-30 22:57:17,533
2025-07-30 22:57:17,541
2025-07-30 22:57:17,486
2025-07-30 22:57:17,507
2025-07-30 22:57:17,546
2025-07-30 22:57:17,499
2025-07-30 22:57:17,485
2025-07-30 22:57:17,547
2025-07-30 22:57:17,512
2025-07-30 22:57:17,487
2025-07-30 22:57:17,540
2025-07-30 22:57:17,523
2025-07-30 22:57:17,502
2025-07-30 22:57:17,549
2025-07-30 22:57:17,528
2025-07-30 22:57:17,480
2025-07-30 22:57:17,510
2025-07-30 22:57:17,538
2025-07-30 22:57:17,487
2025-07-30 22:57:17,504
2025-07-30 22:57:17,555
2025-07-30 22:57:17,527
2025-07-30 22:57:17,500
2025-07-30 22:57:17,557
2025-07-30 22:57:17,513
2025-07-30 22:57:17,474
2025-07-30 22:57:17,530
2025-07-30 22:57:17,530
2025-07-30 22:57:17,481
2025-07-30 22:57:17,535
2025-07-30 22:57:17,536
2025-07-30 22:57:17,481
2025-07-30 22:57:17,514
2025-07-30 22:57:17,554
2025-07-30 22:57:17,504
2025-07-30 22:57:17,503
2025-07-30 22:57:17,564
2025-07-30 22:57:17,518
2025-07-30 22:57:17,483
2025-07-30 22:57:17,553
2025-07-30 22:57:17,523
2025-07-30 22:57:17,489
2025-07-30 22:57:17,549
2025-07-30 22:57:18,554
2025-07-30 22:57:18,483
2025-07-30 22:57:18,537
2025-07-30 22:57:18,561
2025-07-30 22:57:18,503
2025-07-30 22:57:18,531
2025-07-30 22:57:18,570
2025-07-30 22:57:18,514
2025-07-30 22:57:18,513
2025-07-30 22:57:18,554
2025-07-30 22:57:18,531
2025-07-30 22:57:18,501
2025-07-30 22:57:18,563
2025-07-30 22:57:18,536
2025-07-30 22:57:18,493
2025-07-30 22:57:18,559
2025-07-30 22:57:18,549
2025-07-30 22:57:18,506
2025-07-30 22:57:18,548
2025-07-30 22:57:18,551
2025-07-30 22:57:18,498
2025-07-30 22:57:18,526
2025-07-30 22:57:18,570
2025-07-30 22:57:18,532
2025-07-30 22:57:18,539
2025-07-30 22:57:18,587
2025-07-30 22:57:18,524
2025-07-30 22:57:18,502
2025-07-30 22:57:18,557
2025-07-30 22:57:18,545
2025-07-30 22:57:18,525
2025-07-30 22:57:18,547
2025-07-30 22:57:18,535
2025-07-30 22:57:18,479
2025-07-30 22:57:18,528
2025-07-30 22:57:18,563
2025-07-30 22:57:18,495
2025-07-30 22:57:18,527
2025-07-30 22:57:18,556
2025-07-30 22:57:18,508
2025-07-30 22:57:18,506
2025-07-30 22:57:18,563
2025-07-30 22:57:18,536
2025-07-30 22:57:18,502
2025-07-30 22:57:18,560
2025-07-30 22:57:18,521
2025-07-30 22:57:18,478
2025-07-30 22:57:18,533
2025-07-30 22:57:18,536
2025-07-30 22:57:18,481
2025-07-30 22:57:18,520
2025-07-30 22:57:18,546
2025-07-30 22:57:18,511
2025-07-30 22:57:18,516
2025-07-30 22:57:18,548
2025-07-30 22:57:18,490
2025-07-30 22:57:18,492
2025-07-30 22:57:18,541
2025-07-30 22:57:18,500
2025-07-30 22:57:18,478
2025-07-30 22:57:18,544
2025-07-30 22:57:18,528
2025-07-30 22:57:18,477
2025-07-30 22:57:18,513
2025-07-30 22:57:18,529
2025-07-30 22:57:18,494
2025-07-30 22:57:18,525
2025-07-30 22:57:18,538
2025-07-30 22:57:18,472
2025-07-30 22:57:18,477
2025-07-30 22:57:18,520
2025-07-30 22:57:18,489
2025-07-30 22:57:18,486
2025-07-30 22:57:18,511
2025-07-30 22:57:18,476
2025-07-30 22:57:18,456
2025-07-30 22:57:18,521
2025-07-30 22:57:18,498
2025-07-30 22:57:18,467
2025-07-30 22:57:18,520
2025-07-30 22:57:18,522
2025-07-30 22:57:18,487
2025-07-30 22:57:18,498
2025-07-30 22:57:18,504
2025-07-30 22:57:18,452
2025-07-30 22:57:18,470
2025-07-30 22:57:18,525
2025-07-30 22:57:18,476
2025-07-30 22:57:18,465
2025-07-30 22:57:18,522
2025-07-30 22:57:18,495
2025-07-30 22:57:18,461
2025-07-30 22:57:18,519
2025-07-30 22:57:18,526
2025-07-30 22:57:18,467
2025-07-30 22:57:18,512
2025-07-30 22:57:18,522
2025-07-30 22:57:18,452
2025-07-30 22:57:18,480
2025-07-30 22:57:18,515
2025-07-30 22:57:18,471
2025-07-30 22:57:18,474
2025-07-30 22:57:18,520
2025-07-30 22:57:18,480
2025-07-30 22:57:18,477
2025-07-30 22:57:18,539
2025-07-30 22:57:18,517
2025-07-30 22:57:18,474
2025-07-30 22:57:18,505
2025-07-30 22:57:18,512
2025-07-30 22:57:18,486
2025-07-30 22:57:18,523
2025-07-30 22:57:18,531
2025-07-30 22:57:18,467
2025-07-30 22:57:18,497
2025-07-30 22:57:18,536
2025-07-30 22:57:18,491
2025-07-30 22:57:18,485
2025-07-30 22:57:18,530
2025-07-30 22:57:18,499
2025-07-30 22:57:18,494
2025-07-30 22:57:18,544
2025-07-30 22:57:18,507
2025-07-30 22:57:18,473
2025-07-30 22:57:18,519
2025-07-30 22:57:18,508
2025-07-30 22:57:18,480
2025-07-30 22:57:18,509
2025-07-30 22:57:18,521
2025-07-30 22:57:18,475
2025-07-30 22:57:18,498
2025-07-30 22:57:18,537
2025-07-30 22:57:18,491
2025-07-30 22:57:18,505
2025-07-30 22:57:18,561
2025-07-30 22:57:18,518
2025-07-30 22:57:18,485
2025-07-30 22:57:18,549
2025-07-30 22:57:18,530
2025-07-30 22:57:18,500
2025-07-30 22:57:18,518
2025-07-30 22:57:18,530
2025-07-30 22:57:18,482
2025-07-30 22:57:18,525
2025-07-30 22:57:18,558
2025-07-30 22:57:18,511
2025-07-30 22:57:18,531
2025-07-30 22:57:18,555
2025-07-30 22:57:18,509
2025-07-30 22:57:18,510
2025-07-30 22:57:18,557
2025-07-30 22:57:18,522
2025-07-30 22:57:18,500
2025-07-30 22:57:18,541
2025-07-30 22:57:18,546
2025-07-30 22:57:18,513
2025-07-30 22:57:18,547
2025-07-30 22:57:18,542
2025-07-30 22:57:18,488
2025-07-30 22:57:18,534
2025-07-30 22:57:18,559
2025-07-30 22:57:18,494
2025-07-30 22:57:18,516
2025-07-30 22:57:18,564
2025-07-30 22:57:18,523
2025-07-30 22:57:18,512
2025-07-30 22:57:18,560
2025-07-30 22:57:18,517
2025-07-30 22:57:18,509
2025-07-30 22:57:18,572
2025-07-30 22:57:18,540
2025-07-30 22:57:18,485
2025-07-30 22:57:18,540
2025-07-30 22:57:18,562
2025-07-30 22:57:18,511
2025-07-30 22:57:18,528
2025-07-30 22:57:18,539
2025-07-30 22:57:18,501
2025-07-30 22:57:18,529
2025-07-30 22:57:18,576
2025-07-30 22:57:18,507
2025-07-30 22:57:18,505
2025-07-30 22:57:18,558
2025-07-30 22:57:18,541
2025-07-30 22:57:18,506
2025-07-30 22:57:18,553
2025-07-30 22:57:18,544
2025-07-30 22:57:18,485
2025-07-30 22:57:18,527
2025-07-30 22:57:18,542
2025-07-30 22:57:18,494
2025-07-30 22:57:18,532
2025-07-30 22:57:18,575
2025-07-30 22:57:18,507
2025-07-30 22:57:19,501
2025-07-30 22:57:19,555
2025-07-30 22:57:19,523
2025-07-30 22:57:19,522
2025-07-30 22:57:19,557
2025-07-30 22:57:19,528
2025-07-30 22:57:19,504
2025-07-30 22:57:19,551
2025-07-30 22:57:19,539
2025-07-30 22:57:19,498
2025-07-30 22:57:19,540
2025-07-30 22:57:19,555
2025-07-30 22:57:19,495
2025-07-30 22:57:19,535
2025-07-30 22:57:19,570
2025-07-30 22:57:19,502
2025-07-30 22:57:19,520
2025-07-30 22:57:19,567
2025-07-30 22:57:19,513
2025-07-30 22:57:19,497
2025-07-30 22:57:19,556
2025-07-30 22:57:19,536
2025-07-30 22:57:19,500
2025-07-30 22:57:19,558
2025-07-30 22:57:19,551
2025-07-30 22:57:19,497
2025-07-30 22:57:19,543
2025-07-30 22:57:19,567
2025-07-30 22:57:19,499
2025-07-30 22:57:19,527
2025-07-30 22:57:19,572
2025-07-30 22:57:19,524
2025-07-30 22:57:19,520
2025-07-30 22:57:19,565
2025-07-30 22:57:19,520
2025-07-30 22:57:19,517
2025-07-30 22:57:19,559
2025-07-30 22:57:19,525
2025-07-30 22:57:19,486
2025-07-30 22:57:19,548
2025-07-30 22:57:19,560
2025-07-30 22:57:19,499
2025-07-30 22:57:19,548
2025-07-30 22:57:19,553
2025-07-30 22:57:19,493
2025-07-30 22:57:19,526
2025-07-30 22:57:19,572
2025-07-30 22:57:19,500
2025-07-30 22:57:19,484
2025-07-30 22:57:19,544
2025-07-30 22:57:19,509
2025-07-30 22:57:19,490
2025-07-30 22:57:19,540
2025-07-30 22:57:19,521
2025-07-30 22:57:19,484
2025-07-30 22:57:19,541
2025-07-30 22:57:19,544
2025-07-30 22:57:19,491
2025-07-30 22:57:19,515
2025-07-30 22:57:19,545
2025-07-30 22:57:19,472
2025-07-30 22:57:19,501
2025-07-30 22:57:19,548
2025-07-30 22:57:19,493
2025-07-30 22:57:19,482
2025-07-30 22:57:19,534
2025-07-30 22:57:19,510
2025-07-30 22:57:19,495
2025-07-30 22:57:19,528
2025-07-30 22:57:19,514
2025-07-30 22:57:19,482
2025-07-30 22:57:19,531
2025-07-30 22:57:19,527
2025-07-30 22:57:19,483
2025-07-30 22:57:19,538
2025-07-30 22:57:19,535
2025-07-30 22:57:19,469
2025-07-30 22:57:19,501
2025-07-30 22:57:19,537
2025-07-30 22:57:19,491
2025-07-30 22:57:19,499
2025-07-30 22:57:19,557
2025-07-30 22:57:19,499
2025-07-30 22:57:19,461
2025-07-30 22:57:19,522
2025-07-30 22:57:19,518
2025-07-30 22:57:19,463
2025-07-30 22:57:19,521
2025-07-30 22:57:19,544
2025-07-30 22:57:19,454
2025-07-30 22:57:19,483
2025-07-30 22:57:19,511
2025-07-30 22:57:19,455
2025-07-30 22:57:19,503
2025-07-30 22:57:19,527
2025-07-30 22:57:19,470
2025-07-30 22:57:19,467
2025-07-30 22:57:19,531
2025-07-30 22:57:19,496
2025-07-30 22:57:19,472
2025-07-30 22:57:19,527
2025-07-30 22:57:19,521
2025-07-30 22:57:19,485
2025-07-30 22:57:19,513
2025-07-30 22:57:19,529
2025-07-30 22:57:19,481
2025-07-30 22:57:19,479
2025-07-30 22:57:19,516
2025-07-30 22:57:19,469
2025-07-30 22:57:19,483
2025-07-30 22:57:19,527
2025-07-30 22:57:19,486
2025-07-30 22:57:19,476
2025-07-30 22:57:19,536
2025-07-30 22:57:19,512
2025-07-30 22:57:19,489
2025-07-30 22:57:19,539
2025-07-30 22:57:19,534
2025-07-30 22:57:19,486
2025-07-30 22:57:19,525
2025-07-30 22:57:19,541
2025-07-30 22:57:19,480
2025-07-30 22:57:19,517
2025-07-30 22:57:19,553
2025-07-30 22:57:19,496
2025-07-30 22:57:19,503
2025-07-30 22:57:19,559
2025-07-30 22:57:19,510
2025-07-30 22:57:19,494
2025-07-30 22:57:19,551
2025-07-30 22:57:19,521
2025-07-30 22:57:19,483
2025-07-30 22:57:19,548
2025-07-30 22:57:19,547
2025-07-30 22:57:19,491
2025-07-30 22:57:19,532
2025-07-30 22:57:19,553
2025-07-30 22:57:19,502
2025-07-30 22:57:19,524
2025-07-30 22:57:19,550
2025-07-30 22:57:19,519
2025-07-30 22:57:19,519
2025-07-30 22:57:19,563
2025-07-30 22:57:19,508
2025-07-30 22:57:19,492
2025-07-30 22:57:19,557
2025-07-30 22:57:19,524
2025-07-30 22:57:19,487
2025-07-30 22:57:19,543
2025-07-30 22:57:19,534
2025-07-30 22:57:19,484
2025-07-30 22:57:19,523
2025-07-30 22:57:19,539
2025-07-30 22:57:19,490
2025-07-30 22:57:19,507
2025-07-30 22:57:19,543
2025-07-30 22:57:19,502
2025-07-30 22:57:19,511
2025-07-30 22:57:19,539
2025-07-30 22:57:19,482
2025-07-30 22:57:19,471
2025-07-30 22:57:19,535
2025-07-30 22:57:19,518
2025-07-30 22:57:19,478
2025-07-30 22:57:19,522
2025-07-30 22:57:19,533
2025-07-30 22:57:19,486
2025-07-30 22:57:19,517
2025-07-30 22:57:19,532
2025-07-30 22:57:19,476
2025-07-30 22:57:19,494
2025-07-30 22:57:19,529
2025-07-30 22:57:19,487
2025-07-30 22:57:19,499
2025-07-30 22:57:19,538
2025-07-30 22:57:19,501
2025-07-30 22:57:19,493
2025-07-30 22:57:19,551
2025-07-30 22:57:19,531
2025-07-30 22:57:19,498
2025-07-30 22:57:19,526
2025-07-30 22:57:19,519
2025-07-30 22:57:19,475
2025-07-30 22:57:19,506
2025-07-30 22:57:19,524
2025-07-30 22:57:19,476
2025-07-30 22:57:19,496
2025-07-30 22:57:19,546
2025-07-30 22:57:19,506
2025-07-30 22:57:19,498
2025-07-30 22:57:19,536
2025-07-30 22:57:19,489
2025-07-30 22:57:19,473
2025-07-30 22:57:20,526
2025-07-30 22:57:20,519
2025-07-30 22:57:20,468
2025-07-30 22:57:20,501
2025-07-30 22:57:20,518
2025-07-30 22:57:20,502
2025-07-30 22:57:20,527
2025-07-30 22:57:20,533
2025-07-30 22:57:20,466
2025-07-30 22:57:20,478
2025-07-30 22:57:20,532
2025-07-30 22:57:20,496
2025-07-30 22:57:20,490
2025-07-30 22:57:20,514
2025-07-30 22:57:20,483
2025-07-30 22:57:20,452
2025-07-30 22:57:20,526
2025-07-30 22:57:20,505
2025-07-30 22:57:20,442
2025-07-30 22:57:20,496
2025-07-30 22:57:20,516
2025-07-30 22:57:20,481
2025-07-30 22:57:20,509
2025-07-30 22:57:20,509
2025-07-30 22:57:20,439
2025-07-30 22:57:20,483
2025-07-30 22:57:20,501
2025-07-30 22:57:20,455
2025-07-30 22:57:20,429
2025-07-30 22:57:20,488
2025-07-30 22:57:20,456
2025-07-30 22:57:20,448
2025-07-30 22:57:20,492
2025-07-30 22:57:20,490
2025-07-30 22:57:20,450
2025-07-30 22:57:20,502
2025-07-30 22:57:20,523
2025-07-30 22:57:20,449
2025-07-30 22:57:20,480
2025-07-30 22:57:20,499
2025-07-30 22:57:20,457
2025-07-30 22:57:20,474
2025-07-30 22:57:20,516
2025-07-30 22:57:20,472
2025-07-30 22:57:20,458
2025-07-30 22:57:20,521
2025-07-30 22:57:20,501
2025-07-30 22:57:20,483
2025-07-30 22:57:20,530
2025-07-30 22:57:20,513
2025-07-30 22:57:20,494
2025-07-30 22:57:20,526
2025-07-30 22:57:20,541
2025-07-30 22:57:20,483
2025-07-30 22:57:20,524
2025-07-30 22:57:20,532
2025-07-30 22:57:20,487
2025-07-30 22:57:20,494
2025-07-30 22:57:20,564
2025-07-30 22:57:20,525
2025-07-30 22:57:20,495
2025-07-30 22:57:20,546
2025-07-30 22:57:20,539
2025-07-30 22:57:20,485
2025-07-30 22:57:20,533
2025-07-30 22:57:20,547
2025-07-30 22:57:20,500
2025-07-30 22:57:20,542
2025-07-30 22:57:20,557
2025-07-30 22:57:20,501
2025-07-30 22:57:20,529
2025-07-30 22:57:20,568
2025-07-30 22:57:20,506
2025-07-30 22:57:20,504
2025-07-30 22:57:20,541
2025-07-30 22:57:20,508
2025-07-30 22:57:20,509
2025-07-30 22:57:20,543
2025-07-30 22:57:20,553
2025-07-30 22:57:20,486
2025-07-30 22:57:20,512
2025-07-30 22:57:20,521
2025-07-30 22:57:20,483
2025-07-30 22:57:20,526
2025-07-30 22:57:20,544
2025-07-30 22:57:20,489
2025-07-30 22:57:20,518
2025-07-30 22:57:20,588
2025-07-30 22:57:20,542
2025-07-30 22:57:20,493
2025-07-30 22:57:20,522
2025-07-30 22:57:20,489
2025-07-30 22:57:20,472
2025-07-30 22:57:20,531
2025-07-30 22:57:20,509
2025-07-30 22:57:20,472
2025-07-30 22:57:20,518
2025-07-30 22:57:20,526
2025-07-30 22:57:20,485
2025-07-30 22:57:20,513
2025-07-30 22:57:20,530
2025-07-30 22:57:20,475
2025-07-30 22:57:20,499
2025-07-30 22:57:20,566
2025-07-30 22:57:20,502
2025-07-30 22:57:20,477
2025-07-30 22:57:20,533
2025-07-30 22:57:20,493
2025-07-30 22:57:20,453
2025-07-30 22:57:20,511
2025-07-30 22:57:20,503
2025-07-30 22:57:20,462
2025-07-30 22:57:20,514
2025-07-30 22:57:20,529
2025-07-30 22:57:20,481
2025-07-30 22:57:20,514
2025-07-30 22:57:20,534
2025-07-30 22:57:20,508
2025-07-30 22:57:20,503
2025-07-30 22:57:20,545
2025-07-30 22:57:20,501
2025-07-30 22:57:20,488
2025-07-30 22:57:20,543
2025-07-30 22:57:20,507
2025-07-30 22:57:20,473
2025-07-30 22:57:20,521
2025-07-30 22:57:20,514
2025-07-30 22:57:20,476
2025-07-30 22:57:20,537
2025-07-30 22:57:20,533
2025-07-30 22:57:20,474
2025-07-30 22:57:20,503
2025-07-30 22:57:20,552
2025-07-30 22:57:20,494
2025-07-30 22:57:20,487
2025-07-30 22:57:20,516
2025-07-30 22:57:20,469
2025-07-30 22:57:20,458
2025-07-30 22:57:20,519
2025-07-30 22:57:20,496
2025-07-30 22:57:20,458
2025-07-30 22:57:20,516
2025-07-30 22:57:20,515
2025-07-30 22:57:20,468
2025-07-30 22:57:20,506
2025-07-30 22:57:20,506
2025-07-30 22:57:20,441
2025-07-30 22:57:20,471
2025-07-30 22:57:20,508
2025-07-30 22:57:20,463
2025-07-30 22:57:20,476
2025-07-30 22:57:20,520
2025-07-30 22:57:20,477
2025-07-30 22:57:20,468
2025-07-30 22:57:20,535
2025-07-30 22:57:20,497
2025-07-30 22:57:20,465
2025-07-30 22:57:20,522
2025-07-30 22:57:20,539
2025-07-30 22:57:20,470
2025-07-30 22:57:20,491
2025-07-30 22:57:20,490
2025-07-30 22:57:20,445
2025-07-30 22:57:20,479
2025-07-30 22:57:20,510
2025-07-30 22:57:20,470
2025-07-30 22:57:20,472
2025-07-30 22:57:20,534
2025-07-30 22:57:20,503
2025-07-30 22:57:20,476
2025-07-30 22:57:20,516
2025-07-30 22:57:20,496
2025-07-30 22:57:20,460
2025-07-30 22:57:20,501
2025-07-30 22:57:20,501
2025-07-30 22:57:20,451
2025-07-30 22:57:20,498
2025-07-30 22:57:20,510
2025-07-30 22:57:20,467
2025-07-30 22:57:20,501
2025-07-30 22:57:20,519
2025-07-30 22:57:20,491
2025-07-30 22:57:20,478
2025-07-30 22:57:20,520
2025-07-30 22:57:20,476
2025-07-30 22:57:20,450
2025-07-30 22:57:20,507
2025-07-30 22:57:20,495
2025-07-30 22:57:20,465
2025-07-30 22:57:20,517
2025-07-30 22:57:20,519
2025-07-30 22:57:21,468
2025-07-30 22:57:21,509
2025-07-30 22:57:21,546
2025-07-30 22:57:21,502
2025-07-30 22:57:21,501
2025-07-30 22:57:21,521
2025-07-30 22:57:21,503
2025-07-30 22:57:21,501
2025-07-30 22:57:21,522
2025-07-30 22:57:21,488
2025-07-30 22:57:21,472
2025-07-30 22:57:21,532
2025-07-30 22:57:21,511
2025-07-30 22:57:21,460
2025-07-30 22:57:21,494
2025-07-30 22:57:21,495
2025-07-30 22:57:21,448
2025-07-30 22:57:21,482
2025-07-30 22:57:21,518
2025-07-30 22:57:21,459
2025-07-30 22:57:21,472
2025-07-30 22:57:21,514
2025-07-30 22:57:21,475
2025-07-30 22:57:21,474
2025-07-30 22:57:21,526
2025-07-30 22:57:21,508
2025-07-30 22:57:21,460
2025-07-30 22:57:21,516
2025-07-30 22:57:21,513
2025-07-30 22:57:21,472
2025-07-30 22:57:21,505
2025-07-30 22:57:21,507
2025-07-30 22:57:21,464
2025-07-30 22:57:21,501
2025-07-30 22:57:21,527
2025-07-30 22:57:21,488
2025-07-30 22:57:21,522
2025-07-30 22:57:21,574
2025-07-30 22:57:21,521
2025-07-30 22:57:21,523
2025-07-30 22:57:21,547
2025-07-30 22:57:21,522
2025-07-30 22:57:21,502
2025-07-30 22:57:21,546
2025-07-30 22:57:21,539
2025-07-30 22:57:21,485
2025-07-30 22:57:21,528
2025-07-30 22:57:21,555
2025-07-30 22:57:21,486
2025-07-30 22:57:21,530
2025-07-30 22:57:21,564
2025-07-30 22:57:21,512
2025-07-30 22:57:21,519
2025-07-30 22:57:21,554
2025-07-30 22:57:21,518
2025-07-30 22:57:21,525
2025-07-30 22:57:21,566
2025-07-30 22:57:21,537
2025-07-30 22:57:21,492
2025-07-30 22:57:21,547
2025-07-30 22:57:21,542
2025-07-30 22:57:21,504
2025-07-30 22:57:21,556
2025-07-30 22:57:21,570
2025-07-30 22:57:21,514
2025-07-30 22:57:21,529
2025-07-30 22:57:21,566
2025-07-30 22:57:21,522
2025-07-30 22:57:21,525
2025-07-30 22:57:21,561
2025-07-30 22:57:21,522
2025-07-30 22:57:21,511
2025-07-30 22:57:21,547
2025-07-30 22:57:21,518
2025-07-30 22:57:21,495
2025-07-30 22:57:21,545
2025-07-30 22:57:21,547
2025-07-30 22:57:21,508
2025-07-30 22:57:21,553
2025-07-30 22:57:21,574
2025-07-30 22:57:21,511
2025-07-30 22:57:21,539
2025-07-30 22:57:21,576
2025-07-30 22:57:21,508
2025-07-30 22:57:21,516
2025-07-30 22:57:21,569
2025-07-30 22:57:21,534
2025-07-30 22:57:21,514
2025-07-30 22:57:21,565
2025-07-30 22:57:21,545
2025-07-30 22:57:21,504
2025-07-30 22:57:21,566
2025-07-30 22:57:21,577
2025-07-30 22:57:21,503
2025-07-30 22:57:21,545
2025-07-30 22:57:21,575
2025-07-30 22:57:21,517
2025-07-30 22:57:21,534
2025-07-30 22:57:21,573
2025-07-30 22:57:21,524
2025-07-30 22:57:21,532
2025-07-30 22:57:21,581
2025-07-30 22:57:21,548
2025-07-30 22:57:21,526
2025-07-30 22:57:21,584
2025-07-30 22:57:21,576
2025-07-30 22:57:21,521
2025-07-30 22:57:21,570
2025-07-30 22:57:21,577
2025-07-30 22:57:21,526
2025-07-30 22:57:21,555
2025-07-30 22:57:21,569
2025-07-30 22:57:21,515
2025-07-30 22:57:21,541
2025-07-30 22:57:21,577
2025-07-30 22:57:21,528
2025-07-30 22:57:21,533
2025-07-30 22:57:21,577
2025-07-30 22:57:21,554
2025-07-30 22:57:21,531
2025-07-30 22:57:21,580
2025-07-30 22:57:21,556
2025-07-30 22:57:21,516
2025-07-30 22:57:21,575
2025-07-30 22:57:21,586
2025-07-30 22:57:21,539
2025-07-30 22:57:21,567
2025-07-30 22:57:21,591
2025-07-30 22:57:21,532
2025-07-30 22:57:21,542
2025-07-30 22:57:21,585
2025-07-30 22:57:21,546
2025-07-30 22:57:21,534
2025-07-30 22:57:21,588
2025-07-30 22:57:21,557
2025-07-30 22:57:21,534
2025-07-30 22:57:21,576
2025-07-30 22:57:21,554
2025-07-30 22:57:21,531
2025-07-30 22:57:21,586
2025-07-30 22:57:21,586
2025-07-30 22:57:21,526
2025-07-30 22:57:21,571
2025-07-30 22:57:21,584
2025-07-30 22:57:21,528
2025-07-30 22:57:21,538
2025-07-30 22:57:21,586
2025-07-30 22:57:21,547
2025-07-30 22:57:21,530
2025-07-30 22:57:21,573
2025-07-30 22:57:21,547
2025-07-30 22:57:21,521
2025-07-30 22:57:21,577
2025-07-30 22:57:21,564
2025-07-30 22:57:21,512
2025-07-30 22:57:21,563
2025-07-30 22:57:21,580
2025-07-30 22:57:21,535
2025-07-30 22:57:21,554
2025-07-30 22:57:21,577
2025-07-30 22:57:21,532
2025-07-30 22:57:21,522
2025-07-30 22:57:21,570
2025-07-30 22:57:21,542
2025-07-30 22:57:21,522
2025-07-30 22:57:21,582
2025-07-30 22:57:21,551
2025-07-30 22:57:21,508
2025-07-30 22:57:21,552
2025-07-30 22:57:21,543
2025-07-30 22:57:21,501
2025-07-30 22:57:21,562
2025-07-30 22:57:21,555
2025-07-30 22:57:21,498
2025-07-30 22:57:21,524
2025-07-30 22:57:21,578
2025-07-30 22:57:21,538
2025-07-30 22:57:21,531
2025-07-30 22:57:21,595
2025-07-30 22:57:21,525
2025-07-30 22:57:21,498
2025-07-30 22:57:21,575
2025-07-30 22:57:21,529
2025-07-30 22:57:21,491
2025-07-30 22:57:21,547
2025-07-30 22:57:21,546
2025-07-30 22:57:21,507
2025-07-30 22:57:21,546
2025-07-30 22:57:21,559
2025-07-30 22:57:21,501
2025-07-30 22:57:21,548
2025-07-30 22:57:21,595
2025-07-30 22:57:21,512
2025-07-30 22:57:22,506
2025-07-30 22:57:22,546
2025-07-30 22:57:22,507
2025-07-30 22:57:22,495
2025-07-30 22:57:22,558
2025-07-30 22:57:22,527
2025-07-30 22:57:22,502
2025-07-30 22:57:22,575
2025-07-30 22:57:22,574
2025-07-30 22:57:22,497
2025-07-30 22:57:22,550
2025-07-30 22:57:22,578
2025-07-30 22:57:22,525
2025-07-30 22:57:22,556
2025-07-30 22:57:22,586
2025-07-30 22:57:22,526
2025-07-30 22:57:22,518
2025-07-30 22:57:22,565
2025-07-30 22:57:22,528
2025-07-30 22:57:22,518
2025-07-30 22:57:22,576
2025-07-30 22:57:22,554
2025-07-30 22:57:22,517
2025-07-30 22:57:22,574
2025-07-30 22:57:22,571
2025-07-30 22:57:22,516
2025-07-30 22:57:22,555
2025-07-30 22:57:22,565
2025-07-30 22:57:22,513
2025-07-30 22:57:22,537
2025-07-30 22:57:22,570
2025-07-30 22:57:22,520
2025-07-30 22:57:22,518
2025-07-30 22:57:22,561
2025-07-30 22:57:22,520
2025-07-30 22:57:22,510
2025-07-30 22:57:22,563
2025-07-30 22:57:22,545
2025-07-30 22:57:22,490
2025-07-30 22:57:22,553
2025-07-30 22:57:22,559
2025-07-30 22:57:22,492
2025-07-30 22:57:22,524
2025-07-30 22:57:22,559
2025-07-30 22:57:22,504
2025-07-30 22:57:22,521
2025-07-30 22:57:22,561
2025-07-30 22:57:22,504
2025-07-30 22:57:22,497
2025-07-30 22:57:22,559
2025-07-30 22:57:22,519
2025-07-30 22:57:22,504
2025-07-30 22:57:22,554
2025-07-30 22:57:22,539
2025-07-30 22:57:22,499
2025-07-30 22:57:22,548
2025-07-30 22:57:22,551
2025-07-30 22:57:22,480
2025-07-30 22:57:22,512
2025-07-30 22:57:22,549
2025-07-30 22:57:22,493
2025-07-30 22:57:22,511
2025-07-30 22:57:22,558
2025-07-30 22:57:22,529
2025-07-30 22:57:22,502
2025-07-30 22:57:22,544
2025-07-30 22:57:22,525
2025-07-30 22:57:22,498
2025-07-30 22:57:22,546
2025-07-30 22:57:22,535
2025-07-30 22:57:22,497
2025-07-30 22:57:22,552
2025-07-30 22:57:22,552
2025-07-30 22:57:22,478
2025-07-30 22:57:22,522
2025-07-30 22:57:22,543
2025-07-30 22:57:22,495
2025-07-30 22:57:22,512
2025-07-30 22:57:22,552
2025-07-30 22:57:22,503
2025-07-30 22:57:22,505
2025-07-30 22:57:22,574
2025-07-30 22:57:22,529
2025-07-30 22:57:22,499
2025-07-30 22:57:22,544
2025-07-30 22:57:22,527
2025-07-30 22:57:22,485
2025-07-30 22:57:22,534
2025-07-30 22:57:22,540
2025-07-30 22:57:22,480
2025-07-30 22:57:22,517
2025-07-30 22:57:22,545
2025-07-30 22:57:22,495
2025-07-30 22:57:22,525
2025-07-30 22:57:22,543
2025-07-30 22:57:22,499
2025-07-30 22:57:22,501
2025-07-30 22:57:22,565
2025-07-30 22:57:22,528
2025-07-30 22:57:22,486
2025-07-30 22:57:22,548
2025-07-30 22:57:22,522
2025-07-30 22:57:22,465
2025-07-30 22:57:22,511
2025-07-30 22:57:22,536
2025-07-30 22:57:22,491
2025-07-30 22:57:22,512
2025-07-30 22:57:22,544
2025-07-30 22:57:22,493
2025-07-30 22:57:22,493
2025-07-30 22:57:22,541
2025-07-30 22:57:22,511
2025-07-30 22:57:22,508
2025-07-30 22:57:22,555
2025-07-30 22:57:22,509
2025-07-30 22:57:22,466
2025-07-30 22:57:22,523
2025-07-30 22:57:22,519
2025-07-30 22:57:22,470
2025-07-30 22:57:22,511
2025-07-30 22:57:22,532
2025-07-30 22:57:22,470
2025-07-30 22:57:22,490
2025-07-30 22:57:22,538
2025-07-30 22:57:22,478
2025-07-30 22:57:22,494
2025-07-30 22:57:22,541
2025-07-30 22:57:22,490
2025-07-30 22:57:22,465
2025-07-30 22:57:22,534
2025-07-30 22:57:22,510
2025-07-30 22:57:22,473
2025-07-30 22:57:22,529
2025-07-30 22:57:22,531
2025-07-30 22:57:22,474
2025-07-30 22:57:22,523
2025-07-30 22:57:22,543
2025-07-30 22:57:22,489
2025-07-30 22:57:22,533
2025-07-30 22:57:22,552
2025-07-30 22:57:22,497
2025-07-30 22:57:22,481
2025-07-30 22:57:22,554
2025-07-30 22:57:22,516
2025-07-30 22:57:22,496
2025-07-30 22:57:22,546
2025-07-30 22:57:22,525
2025-07-30 22:57:22,490
2025-07-30 22:57:22,539
2025-07-30 22:57:22,541
2025-07-30 22:57:22,493
2025-07-30 22:57:22,559
2025-07-30 22:57:22,576
2025-07-30 22:57:22,484
2025-07-30 22:57:22,495
2025-07-30 22:57:22,541
2025-07-30 22:57:22,504
2025-07-30 22:57:22,497
2025-07-30 22:57:22,555
2025-07-30 22:57:22,520
2025-07-30 22:57:22,501
2025-07-30 22:57:22,562
2025-07-30 22:57:22,539
2025-07-30 22:57:22,493
2025-07-30 22:57:22,541
2025-07-30 22:57:22,549
2025-07-30 22:57:22,502
2025-07-30 22:57:22,545
2025-07-30 22:57:22,557
2025-07-30 22:57:22,480
2025-07-30 22:57:22,510
2025-07-30 22:57:22,555
2025-07-30 22:57:22,508
2025-07-30 22:57:22,496
2025-07-30 22:57:22,552
2025-07-30 22:57:22,520
2025-07-30 22:57:22,497
2025-07-30 22:57:22,551
2025-07-30 22:57:22,539
2025-07-30 22:57:22,490
2025-07-30 22:57:22,541
2025-07-30 22:57:22,569
2025-07-30 22:57:22,492
2025-07-30 22:57:22,509
2025-07-30 22:57:22,544
2025-07-30 22:57:22,494
2025-07-30 22:57:22,510
2025-07-30 22:57:22,551
2025-07-30 22:57:22,505
2025-07-30 22:57:22,493
2025-07-30 22:57:22,550
2025-07-30 22:57:23,523
2025-07-30 22:57:23,486
2025-07-30 22:57:23,552
2025-07-30 22:57:23,511
2025-07-30 22:57:23,466
2025-07-30 22:57:23,528
2025-07-30 22:57:23,549
2025-07-30 22:57:23,481
2025-07-30 22:57:23,508
2025-07-30 22:57:23,544
2025-07-30 22:57:23,487
2025-07-30 22:57:23,488
2025-07-30 22:57:23,540
2025-07-30 22:57:23,497
2025-07-30 22:57:23,482
2025-07-30 22:57:23,543
2025-07-30 22:57:23,518
2025-07-30 22:57:23,489
2025-07-30 22:57:23,536
2025-07-30 22:57:23,521
2025-07-30 22:57:23,482
2025-07-30 22:57:23,542
2025-07-30 22:57:23,537
2025-07-30 22:57:23,486
2025-07-30 22:57:23,522
2025-07-30 22:57:23,560
2025-07-30 22:57:23,496
2025-07-30 22:57:23,506
2025-07-30 22:57:23,557
2025-07-30 22:57:23,508
2025-07-30 22:57:23,504
2025-07-30 22:57:23,558
2025-07-30 22:57:23,532
2025-07-30 22:57:23,494
2025-07-30 22:57:23,544
2025-07-30 22:57:23,540
2025-07-30 22:57:23,490
2025-07-30 22:57:23,542
2025-07-30 22:57:23,551
2025-07-30 22:57:23,508
2025-07-30 22:57:23,525
2025-07-30 22:57:23,557
2025-07-30 22:57:23,505
2025-07-30 22:57:23,512
2025-07-30 22:57:23,568
2025-07-30 22:57:23,521
2025-07-30 22:57:23,509
2025-07-30 22:57:23,572
2025-07-30 22:57:23,550
2025-07-30 22:57:23,507
2025-07-30 22:57:23,539
2025-07-30 22:57:23,535
2025-07-30 22:57:23,486
2025-07-30 22:57:23,529
2025-07-30 22:57:23,547
2025-07-30 22:57:23,496
2025-07-30 22:57:23,520
2025-07-30 22:57:23,552
2025-07-30 22:57:23,516
2025-07-30 22:57:23,511
2025-07-30 22:57:23,559
2025-07-30 22:57:23,523
2025-07-30 22:57:23,506
2025-07-30 22:57:23,549
2025-07-30 22:57:23,530
2025-07-30 22:57:23,484
2025-07-30 22:57:23,531
2025-07-30 22:57:23,535
2025-07-30 22:57:23,484
2025-07-30 22:57:23,521
2025-07-30 22:57:23,554
2025-07-30 22:57:23,494
2025-07-30 22:57:23,511
2025-07-30 22:57:23,551
2025-07-30 22:57:23,495
2025-07-30 22:57:23,492
2025-07-30 22:57:23,568
2025-07-30 22:57:23,530
2025-07-30 22:57:23,485
2025-07-30 22:57:23,541
2025-07-30 22:57:23,527
2025-07-30 22:57:23,482
2025-07-30 22:57:23,533
2025-07-30 22:57:23,536
2025-07-30 22:57:23,479
2025-07-30 22:57:23,524
2025-07-30 22:57:23,559
2025-07-30 22:57:23,495
2025-07-30 22:57:23,503
2025-07-30 22:57:23,544
2025-07-30 22:57:23,510
2025-07-30 22:57:23,502
2025-07-30 22:57:23,552
2025-07-30 22:57:23,517
2025-07-30 22:57:23,486
2025-07-30 22:57:23,543
2025-07-30 22:57:23,525
2025-07-30 22:57:23,484
2025-07-30 22:57:23,536
2025-07-30 22:57:23,542
2025-07-30 22:57:23,480
2025-07-30 22:57:23,514
2025-07-30 22:57:23,572
2025-07-30 22:57:23,495
2025-07-30 22:57:23,506
2025-07-30 22:57:23,550
2025-07-30 22:57:23,508
2025-07-30 22:57:23,496
2025-07-30 22:57:23,540
2025-07-30 22:57:23,508
2025-07-30 22:57:23,476
2025-07-30 22:57:23,525
2025-07-30 22:57:23,514
2025-07-30 22:57:23,470
2025-07-30 22:57:23,520
2025-07-30 22:57:23,524
2025-07-30 22:57:23,470
2025-07-30 22:57:23,507
2025-07-30 22:57:23,537
2025-07-30 22:57:23,490
2025-07-30 22:57:23,512
2025-07-30 22:57:23,541
2025-07-30 22:57:23,489
2025-07-30 22:57:23,466
2025-07-30 22:57:23,517
2025-07-30 22:57:23,502
2025-07-30 22:57:23,468
2025-07-30 22:57:23,520
2025-07-30 22:57:23,519
2025-07-30 22:57:23,470
2025-07-30 22:57:23,516
2025-07-30 22:57:23,544
2025-07-30 22:57:23,472
2025-07-30 22:57:23,496
2025-07-30 22:57:23,538
2025-07-30 22:57:23,514
2025-07-30 22:57:23,513
2025-07-30 22:57:23,527
2025-07-30 22:57:23,488
2025-07-30 22:57:23,475
2025-07-30 22:57:23,534
2025-07-30 22:57:23,524
2025-07-30 22:57:23,493
2025-07-30 22:57:23,523
2025-07-30 22:57:23,515
2025-07-30 22:57:23,470
2025-07-30 22:57:23,515
2025-07-30 22:57:23,535
2025-07-30 22:57:23,484
2025-07-30 22:57:23,501
2025-07-30 22:57:23,538
2025-07-30 22:57:23,502
2025-07-30 22:57:23,505
2025-07-30 22:57:23,538
2025-07-30 22:57:23,495
2025-07-30 22:57:23,474
2025-07-30 22:57:23,535
2025-07-30 22:57:23,512
2025-07-30 22:57:23,487
2025-07-30 22:57:23,533
2025-07-30 22:57:23,526
2025-07-30 22:57:23,491
2025-07-30 22:57:23,521
2025-07-30 22:57:23,531
2025-07-30 22:57:23,477
2025-07-30 22:57:23,498
2025-07-30 22:57:23,536
2025-07-30 22:57:23,490
2025-07-30 22:57:23,484
2025-07-30 22:57:23,532
2025-07-30 22:57:23,497
2025-07-30 22:57:23,480
2025-07-30 22:57:23,537
2025-07-30 22:57:23,523
2025-07-30 22:57:23,476
2025-07-30 22:57:23,527
2025-07-30 22:57:23,542
2025-07-30 22:57:23,502
2025-07-30 22:57:23,537
2025-07-30 22:57:23,549
2025-07-30 22:57:23,475
2025-07-30 22:57:23,488
2025-07-30 22:57:23,526
2025-07-30 22:57:23,483
2025-07-30 22:57:23,487
2025-07-30 22:57:23,537
2025-07-30 22:57:23,489
2025-07-30 22:57:23,463
2025-07-30 22:57:23,523
2025-07-30 22:57:23,519
2025-07-30 22:57:23,467
2025-07-30 22:57:23,527
2025-07-30 22:57:23,546
2025-07-30 22:57:24,465
2025-07-30 22:57:24,508
2025-07-30 22:57:24,532
2025-07-30 22:57:24,479
2025-07-30 22:57:24,493
2025-07-30 22:57:24,535
2025-07-30 22:57:24,491
2025-07-30 22:57:24,484
2025-07-30 22:57:24,536
2025-07-30 22:57:24,507
2025-07-30 22:57:24,478
2025-07-30 22:57:24,545
2025-07-30 22:57:24,526
2025-07-30 22:57:24,468
2025-07-30 22:57:24,520
2025-07-30 22:57:24,533
2025-07-30 22:57:24,481
2025-07-30 22:57:24,503
2025-07-30 22:57:24,527
2025-07-30 22:57:24,479
2025-07-30 22:57:24,489
2025-07-30 22:57:24,539
2025-07-30 22:57:24,492
2025-07-30 22:57:24,486
2025-07-30 22:57:24,541
2025-07-30 22:57:24,501
2025-07-30 22:57:24,476
2025-07-30 22:57:24,543
2025-07-30 22:57:24,531
2025-07-30 22:57:24,476
2025-07-30 22:57:24,519
2025-07-30 22:57:24,530
2025-07-30 22:57:24,469
2025-07-30 22:57:24,506
2025-07-30 22:57:24,531
2025-07-30 22:57:24,486
2025-07-30 22:57:24,490
2025-07-30 22:57:24,538
2025-07-30 22:57:24,500
2025-07-30 22:57:24,489
2025-07-30 22:57:24,535
2025-07-30 22:57:24,518
2025-07-30 22:57:24,480
2025-07-30 22:57:24,534
2025-07-30 22:57:24,525
2025-07-30 22:57:24,460
2025-07-30 22:57:24,513
2025-07-30 22:57:24,530
2025-07-30 22:57:24,480
2025-07-30 22:57:24,504
2025-07-30 22:57:24,547
2025-07-30 22:57:24,488
2025-07-30 22:57:24,501
2025-07-30 22:57:24,546
2025-07-30 22:57:24,499
2025-07-30 22:57:24,497
2025-07-30 22:57:24,548
2025-07-30 22:57:24,526
2025-07-30 22:57:24,476
2025-07-30 22:57:24,520
2025-07-30 22:57:24,516
2025-07-30 22:57:24,473
2025-07-30 22:57:24,515
2025-07-30 22:57:24,533
2025-07-30 22:57:24,486
2025-07-30 22:57:24,511
2025-07-30 22:57:24,548
2025-07-30 22:57:24,495
2025-07-30 22:57:24,497
2025-07-30 22:57:24,553
2025-07-30 22:57:24,512
2025-07-30 22:57:24,496
2025-07-30 22:57:24,538
2025-07-30 22:57:24,514
2025-07-30 22:57:24,472
2025-07-30 22:57:24,534
2025-07-30 22:57:24,526
2025-07-30 22:57:24,480
2025-07-30 22:57:24,524
2025-07-30 22:57:24,541
2025-07-30 22:57:24,488
2025-07-30 22:57:24,511
2025-07-30 22:57:24,556
2025-07-30 22:57:24,516
2025-07-30 22:57:24,522
2025-07-30 22:57:24,544
2025-07-30 22:57:24,511
2025-07-30 22:57:24,482
2025-07-30 22:57:24,533
2025-07-30 22:57:24,519
2025-07-30 22:57:24,472
2025-07-30 22:57:24,526
2025-07-30 22:57:24,527
2025-07-30 22:57:24,478
2025-07-30 22:57:24,517
2025-07-30 22:57:24,541
2025-07-30 22:57:24,491
2025-07-30 22:57:24,510
2025-07-30 22:57:24,546
2025-07-30 22:57:24,500
2025-07-30 22:57:24,483
2025-07-30 22:57:24,546
2025-07-30 22:57:24,509
2025-07-30 22:57:24,470
2025-07-30 22:57:24,526
2025-07-30 22:57:24,514
2025-07-30 22:57:24,477
2025-07-30 22:57:24,519
2025-07-30 22:57:24,526
2025-07-30 22:57:24,480
2025-07-30 22:57:24,512
2025-07-30 22:57:24,536
2025-07-30 22:57:24,480
2025-07-30 22:57:24,507
2025-07-30 22:57:24,536
2025-07-30 22:57:24,489
2025-07-30 22:57:24,484
2025-07-30 22:57:24,550
2025-07-30 22:57:24,507
2025-07-30 22:57:24,468
2025-07-30 22:57:24,526
2025-07-30 22:57:24,516
2025-07-30 22:57:24,473
2025-07-30 22:57:24,527
2025-07-30 22:57:24,537
2025-07-30 22:57:24,478
2025-07-30 22:57:24,507
2025-07-30 22:57:24,540
2025-07-30 22:57:24,487
2025-07-30 22:57:24,504
2025-07-30 22:57:24,547
2025-07-30 22:57:24,496
2025-07-30 22:57:24,488
2025-07-30 22:57:24,544
2025-07-30 22:57:24,516
2025-07-30 22:57:24,477
2025-07-30 22:57:24,527
2025-07-30 22:57:24,516
2025-07-30 22:57:24,475
2025-07-30 22:57:24,520
2025-07-30 22:57:24,535
2025-07-30 22:57:24,482
2025-07-30 22:57:24,509
2025-07-30 22:57:24,540
2025-07-30 22:57:24,479
2025-07-30 22:57:24,495
2025-07-30 22:57:24,534
2025-07-30 22:57:24,495
2025-07-30 22:57:24,489
2025-07-30 22:57:24,545
2025-07-30 22:57:24,506
2025-07-30 22:57:24,470
2025-07-30 22:57:24,520
2025-07-30 22:57:24,513
2025-07-30 22:57:24,481
2025-07-30 22:57:24,529
2025-07-30 22:57:24,537
2025-07-30 22:57:24,474
2025-07-30 22:57:24,514
2025-07-30 22:57:24,546
2025-07-30 22:57:24,490
2025-07-30 22:57:24,495
2025-07-30 22:57:24,540
2025-07-30 22:57:24,503
2025-07-30 22:57:24,491
2025-07-30 22:57:24,541
2025-07-30 22:57:24,516
2025-07-30 22:57:24,477
2025-07-30 22:57:24,536
2025-07-30 22:57:24,535
2025-07-30 22:57:24,506
2025-07-30 22:57:24,532
2025-07-30 22:57:24,541
2025-07-30 22:57:24,494
2025-07-30 22:57:24,537
2025-07-30 22:57:24,562
2025-07-30 22:57:24,498
2025-07-30 22:57:24,499
2025-07-30 22:57:24,551
2025-07-30 22:57:24,516
2025-07-30 22:57:24,497
2025-07-30 22:57:24,544
2025-07-30 22:57:24,527
2025-07-30 22:57:24,501
2025-07-30 22:57:24,550
2025-07-30 22:57:24,537
2025-07-30 22:57:24,494
2025-07-30 22:57:24,529
2025-07-30 22:57:24,549
2025-07-30 22:57:24,496
2025-07-30 22:57:24,512
2025-07-30 22:57:24,543
2025-07-30 22:57:24,500
2025-07-30 22:57:24,503
2025-07-30 22:57:25,547
2025-07-30 22:57:25,512
2025-07-30 22:57:25,500
2025-07-30 22:57:25,564
2025-07-30 22:57:25,527
2025-07-30 22:57:25,490
2025-07-30 22:57:25,542
2025-07-30 22:57:25,535
2025-07-30 22:57:25,482
2025-07-30 22:57:25,519
2025-07-30 22:57:25,553
2025-07-30 22:57:25,494
2025-07-30 22:57:25,510
2025-07-30 22:57:25,547
2025-07-30 22:57:25,502
2025-07-30 22:57:25,502
2025-07-30 22:57:25,565
2025-07-30 22:57:25,521
2025-07-30 22:57:25,487
2025-07-30 22:57:25,543
2025-07-30 22:57:25,533
2025-07-30 22:57:25,496
2025-07-30 22:57:25,543
2025-07-30 22:57:25,548
2025-07-30 22:57:25,492
2025-07-30 22:57:25,524
2025-07-30 22:57:25,551
2025-07-30 22:57:25,497
2025-07-30 22:57:25,509
2025-07-30 22:57:25,556
2025-07-30 22:57:25,514
2025-07-30 22:57:25,518
2025-07-30 22:57:25,567
2025-07-30 22:57:25,515
2025-07-30 22:57:25,484
2025-07-30 22:57:25,547
2025-07-30 22:57:25,544
2025-07-30 22:57:25,496
2025-07-30 22:57:25,540
2025-07-30 22:57:25,548
2025-07-30 22:57:25,494
2025-07-30 22:57:25,521
2025-07-30 22:57:25,549
2025-07-30 22:57:25,499
2025-07-30 22:57:25,511
2025-07-30 22:57:25,563
2025-07-30 22:57:25,512
2025-07-30 22:57:25,503
2025-07-30 22:57:25,563
2025-07-30 22:57:25,528
2025-07-30 22:57:25,501
2025-07-30 22:57:25,562
2025-07-30 22:57:25,524
2025-07-30 22:57:25,472
2025-07-30 22:57:25,525
2025-07-30 22:57:25,537
2025-07-30 22:57:25,490
2025-07-30 22:57:25,520
2025-07-30 22:57:25,555
2025-07-30 22:57:25,498
2025-07-30 22:57:25,514
2025-07-30 22:57:25,564
2025-07-30 22:57:25,518
2025-07-30 22:57:25,497
2025-07-30 22:57:25,555
2025-07-30 22:57:25,533
2025-07-30 22:57:25,490
2025-07-30 22:57:25,534
2025-07-30 22:57:25,535
2025-07-30 22:57:25,487
2025-07-30 22:57:25,523
2025-07-30 22:57:25,541
2025-07-30 22:57:25,490
2025-07-30 22:57:25,517
2025-07-30 22:57:25,552
2025-07-30 22:57:25,501
2025-07-30 22:57:25,502
2025-07-30 22:57:25,553
2025-07-30 22:57:25,521
2025-07-30 22:57:25,501
2025-07-30 22:57:25,552
2025-07-30 22:57:25,522
2025-07-30 22:57:25,484
2025-07-30 22:57:25,539
2025-07-30 22:57:25,545
2025-07-30 22:57:25,496
2025-07-30 22:57:25,526
2025-07-30 22:57:25,544
2025-07-30 22:57:25,500
2025-07-30 22:57:25,519
2025-07-30 22:57:25,552
2025-07-30 22:57:25,503
2025-07-30 22:57:25,500
2025-07-30 22:57:25,557
2025-07-30 22:57:25,515
2025-07-30 22:57:25,507
2025-07-30 22:57:25,549
2025-07-30 22:57:25,523
2025-07-30 22:57:25,486
2025-07-30 22:57:25,534
2025-07-30 22:57:25,538
2025-07-30 22:57:25,489
2025-07-30 22:57:25,534
2025-07-30 22:57:25,563
2025-07-30 22:57:25,497
2025-07-30 22:57:25,517
2025-07-30 22:57:25,558
2025-07-30 22:57:25,514
2025-07-30 22:57:25,505
2025-07-30 22:57:25,553
2025-07-30 22:57:25,520
2025-07-30 22:57:25,500
2025-07-30 22:57:25,555
2025-07-30 22:57:25,532
2025-07-30 22:57:25,488
2025-07-30 22:57:25,553
2025-07-30 22:57:25,544
2025-07-30 22:57:25,488
2025-07-30 22:57:25,535
2025-07-30 22:57:25,558
2025-07-30 22:57:25,508
2025-07-30 22:57:25,530
2025-07-30 22:57:25,552
2025-07-30 22:57:25,497
2025-07-30 22:57:25,500
2025-07-30 22:57:25,550
2025-07-30 22:57:25,517
2025-07-30 22:57:25,493
2025-07-30 22:57:25,546
2025-07-30 22:57:25,530
2025-07-30 22:57:25,491
2025-07-30 22:57:25,537
2025-07-30 22:57:25,554
2025-07-30 22:57:25,509
2025-07-30 22:57:25,526
2025-07-30 22:57:25,540
2025-07-30 22:57:25,488
2025-07-30 22:57:25,500
2025-07-30 22:57:25,540
2025-07-30 22:57:25,496
2025-07-30 22:57:25,490
2025-07-30 22:57:25,543
2025-07-30 22:57:25,520
2025-07-30 22:57:25,498
2025-07-30 22:57:25,538
2025-07-30 22:57:25,530
2025-07-30 22:57:25,481
2025-07-30 22:57:25,525
2025-07-30 22:57:25,528
2025-07-30 22:57:25,478
2025-07-30 22:57:25,517
2025-07-30 22:57:25,543
2025-07-30 22:57:25,490
2025-07-30 22:57:25,506
2025-07-30 22:57:25,545
2025-07-30 22:57:25,506
2025-07-30 22:57:25,502
2025-07-30 22:57:25,546
2025-07-30 22:57:25,504
2025-07-30 22:57:25,472
2025-07-30 22:57:25,538
2025-07-30 22:57:25,533
2025-07-30 22:57:25,479
2025-07-30 22:57:25,519
2025-07-30 22:57:25,532
2025-07-30 22:57:25,480
2025-07-30 22:57:25,515
2025-07-30 22:57:25,544
2025-07-30 22:57:25,488
2025-07-30 22:57:25,499
2025-07-30 22:57:25,549
2025-07-30 22:57:25,514
2025-07-30 22:57:25,499
2025-07-30 22:57:25,542
2025-07-30 22:57:25,513
2025-07-30 22:57:25,480
2025-07-30 22:57:25,535
2025-07-30 22:57:25,525
2025-07-30 22:57:25,479
2025-07-30 22:57:25,521
2025-07-30 22:57:25,531
2025-07-30 22:57:25,474
2025-07-30 22:57:25,507
2025-07-30 22:57:25,543
2025-07-30 22:57:25,491
2025-07-30 22:57:25,501
2025-07-30 22:57:25,550
2025-07-30 22:57:25,518
2025-07-30 22:57:25,508
2025-07-30 22:57:25,555
2025-07-30 22:57:26,519
2025-07-30 22:57:26,486
2025-07-30 22:57:26,540
2025-07-30 22:57:26,534
2025-07-30 22:57:26,486
2025-07-30 22:57:26,528
2025-07-30 22:57:26,546
2025-07-30 22:57:26,502
2025-07-30 22:57:26,532
2025-07-30 22:57:26,557
2025-07-30 22:57:26,497
2025-07-30 22:57:26,495
2025-07-30 22:57:26,540
2025-07-30 22:57:26,513
2025-07-30 22:57:26,502
2025-07-30 22:57:26,548
2025-07-30 22:57:26,519
2025-07-30 22:57:26,492
2025-07-30 22:57:26,540
2025-07-30 22:57:26,527
2025-07-30 22:57:26,485
2025-07-30 22:57:26,533
2025-07-30 22:57:26,559
2025-07-30 22:57:26,499
2025-07-30 22:57:26,525
2025-07-30 22:57:26,553
2025-07-30 22:57:26,500
2025-07-30 22:57:26,494
2025-07-30 22:57:26,547
2025-07-30 22:57:26,501
2025-07-30 22:57:26,482
2025-07-30 22:57:26,536
2025-07-30 22:57:26,521
2025-07-30 22:57:26,492
2025-07-30 22:57:26,539
2025-07-30 22:57:26,537
2025-07-30 22:57:26,489
2025-07-30 22:57:26,527
2025-07-30 22:57:26,538
2025-07-30 22:57:26,495
2025-07-30 22:57:26,511
2025-07-30 22:57:26,543
2025-07-30 22:57:26,502
2025-07-30 22:57:26,503
2025-07-30 22:57:26,547
2025-07-30 22:57:26,522
2025-07-30 22:57:26,497
2025-07-30 22:57:26,538
2025-07-30 22:57:26,520
2025-07-30 22:57:26,486
2025-07-30 22:57:26,534
2025-07-30 22:57:26,528
2025-07-30 22:57:26,488
2025-07-30 22:57:26,520
2025-07-30 22:57:26,536
2025-07-30 22:57:26,484
2025-07-30 22:57:26,507
2025-07-30 22:57:26,554
2025-07-30 22:57:26,502
2025-07-30 22:57:26,492
2025-07-30 22:57:26,541
2025-07-30 22:57:26,515
2025-07-30 22:57:26,492
2025-07-30 22:57:26,545
2025-07-30 22:57:26,524
2025-07-30 22:57:26,480
2025-07-30 22:57:26,521
2025-07-30 22:57:26,537
2025-07-30 22:57:26,487
2025-07-30 22:57:26,514
2025-07-30 22:57:26,538
2025-07-30 22:57:26,496
2025-07-30 22:57:26,499
2025-07-30 22:57:26,532
2025-07-30 22:57:26,490
2025-07-30 22:57:26,486
2025-07-30 22:57:26,541
2025-07-30 22:57:26,516
2025-07-30 22:57:26,483
2025-07-30 22:57:26,533
2025-07-30 22:57:26,526
2025-07-30 22:57:26,475
2025-07-30 22:57:26,511
2025-07-30 22:57:26,526
2025-07-30 22:57:26,477
2025-07-30 22:57:26,513
2025-07-30 22:57:26,543
2025-07-30 22:57:26,488
2025-07-30 22:57:26,486
2025-07-30 22:57:26,531
2025-07-30 22:57:26,494
2025-07-30 22:57:26,481
2025-07-30 22:57:26,534
2025-07-30 22:57:26,506
2025-07-30 22:57:26,487
2025-07-30 22:57:26,525
2025-07-30 22:57:26,527
2025-07-30 22:57:26,478
2025-07-30 22:57:26,514
2025-07-30 22:57:26,531
2025-07-30 22:57:26,482
2025-07-30 22:57:26,509
2025-07-30 22:57:26,540
2025-07-30 22:57:26,488
2025-07-30 22:57:26,492
2025-07-30 22:57:26,550
2025-07-30 22:57:26,517
2025-07-30 22:57:26,485
2025-07-30 22:57:26,533
2025-07-30 22:57:26,510
2025-07-30 22:57:26,479
2025-07-30 22:57:26,531
2025-07-30 22:57:26,535
2025-07-30 22:57:26,486
2025-07-30 22:57:26,515
2025-07-30 22:57:26,527
2025-07-30 22:57:26,475
2025-07-30 22:57:26,503
2025-07-30 22:57:26,552
2025-07-30 22:57:26,489
2025-07-30 22:57:26,501
2025-07-30 22:57:26,554
2025-07-30 22:57:26,510
2025-07-30 22:57:26,489
2025-07-30 22:57:26,546
2025-07-30 22:57:26,521
2025-07-30 22:57:26,469
2025-07-30 22:57:26,529
2025-07-30 22:57:26,529
2025-07-30 22:57:26,478
2025-07-30 22:57:26,516
2025-07-30 22:57:26,529
2025-07-30 22:57:26,477
2025-07-30 22:57:26,521
2025-07-30 22:57:26,556
2025-07-30 22:57:26,493
2025-07-30 22:57:26,491
2025-07-30 22:57:26,549
2025-07-30 22:57:26,510
2025-07-30 22:57:26,485
2025-07-30 22:57:26,529
2025-07-30 22:57:26,514
2025-07-30 22:57:26,475
2025-07-30 22:57:26,532
2025-07-30 22:57:26,534
2025-07-30 22:57:26,480
2025-07-30 22:57:26,521
2025-07-30 22:57:26,534
2025-07-30 22:57:26,475
2025-07-30 22:57:26,501
2025-07-30 22:57:26,543
2025-07-30 22:57:26,509
2025-07-30 22:57:26,494
2025-07-30 22:57:26,541
2025-07-30 22:57:26,505
2025-07-30 22:57:26,468
2025-07-30 22:57:26,524
2025-07-30 22:57:26,519
2025-07-30 22:57:26,480
2025-07-30 22:57:26,534
2025-07-30 22:57:26,543
2025-07-30 22:57:26,485
2025-07-30 22:57:26,512
2025-07-30 22:57:26,540
2025-07-30 22:57:26,482
2025-07-30 22:57:26,494
2025-07-30 22:57:26,542
2025-07-30 22:57:26,506
2025-07-30 22:57:26,489
2025-07-30 22:57:26,524
2025-07-30 22:57:26,491
2025-07-30 22:57:26,478
2025-07-30 22:57:26,530
2025-07-30 22:57:26,521
2025-07-30 22:57:26,480
2025-07-30 22:57:26,536
2025-07-30 22:57:26,518
2025-07-30 22:57:26,462
2025-07-30 22:57:26,495
2025-07-30 22:57:26,533
2025-07-30 22:57:26,484
2025-07-30 22:57:26,492
2025-07-30 22:57:26,533
2025-07-30 22:57:26,485
2025-07-30 22:57:26,475
2025-07-30 22:57:26,534
2025-07-30 22:57:26,497
2025-07-30 22:57:26,472
2025-07-30 22:57:26,533
2025-07-30 22:57:26,525
2025-07-30 22:57:26,474
2025-07-30 22:57:26,499
2025-07-30 22:57:26,507
2025-07-30 22:57:26,460
2025-07-30 22:57:27,494
2025-07-30 22:57:27,528
2025-07-30 22:57:27,472
2025-07-30 22:57:27,484
2025-07-30 22:57:27,536
2025-07-30 22:57:27,494
2025-07-30 22:57:27,483
2025-07-30 22:57:27,523
2025-07-30 22:57:27,498
2025-07-30 22:57:27,470
2025-07-30 22:57:27,520
2025-07-30 22:57:27,529
2025-07-30 22:57:27,475
2025-07-30 22:57:27,503
2025-07-30 22:57:27,527
2025-07-30 22:57:27,483
2025-07-30 22:57:27,504
2025-07-30 22:57:27,534
2025-07-30 22:57:27,480
2025-07-30 22:57:27,479
2025-07-30 22:57:27,525
2025-07-30 22:57:27,485
2025-07-30 22:57:27,474
2025-07-30 22:57:27,524
2025-07-30 22:57:27,498
2025-07-30 22:57:27,469
2025-07-30 22:57:27,520
2025-07-30 22:57:27,517
2025-07-30 22:57:27,485
2025-07-30 22:57:27,494
2025-07-30 22:57:27,514
2025-07-30 22:57:27,464
2025-07-30 22:57:27,505
2025-07-30 22:57:27,538
2025-07-30 22:57:27,477
2025-07-30 22:57:27,484
2025-07-30 22:57:27,543
2025-07-30 22:57:27,490
2025-07-30 22:57:27,467
2025-07-30 22:57:27,523
2025-07-30 22:57:27,502
2025-07-30 22:57:27,467
2025-07-30 22:57:27,515
2025-07-30 22:57:27,524
2025-07-30 22:57:27,465
2025-07-30 22:57:27,505
2025-07-30 22:57:27,529
2025-07-30 22:57:27,467
2025-07-30 22:57:27,493
2025-07-30 22:57:27,530
2025-07-30 22:57:27,481
2025-07-30 22:57:27,483
2025-07-30 22:57:27,526
2025-07-30 22:57:27,493
2025-07-30 22:57:27,476
2025-07-30 22:57:27,523
2025-07-30 22:57:27,508
2025-07-30 22:57:27,483
2025-07-30 22:57:27,517
2025-07-30 22:57:27,516
2025-07-30 22:57:27,474
2025-07-30 22:57:27,499
2025-07-30 22:57:27,534
2025-07-30 22:57:27,488
2025-07-30 22:57:27,499
2025-07-30 22:57:27,528
2025-07-30 22:57:27,481
2025-07-30 22:57:27,472
2025-07-30 22:57:27,520
2025-07-30 22:57:27,491
2025-07-30 22:57:27,474
2025-07-30 22:57:27,516
2025-07-30 22:57:27,502
2025-07-30 22:57:27,477
2025-07-30 22:57:27,524
2025-07-30 22:57:27,511
2025-07-30 22:57:27,461
2025-07-30 22:57:27,505
2025-07-30 22:57:27,538
2025-07-30 22:57:27,482
2025-07-30 22:57:27,492
2025-07-30 22:57:27,526
2025-07-30 22:57:27,480
2025-07-30 22:57:27,487
2025-07-30 22:57:27,541
2025-07-30 22:57:27,504
2025-07-30 22:57:27,461
2025-07-30 22:57:27,516
2025-07-30 22:57:27,514
2025-07-30 22:57:27,465
2025-07-30 22:57:27,517
2025-07-30 22:57:27,527
2025-07-30 22:57:27,471
2025-07-30 22:57:27,495
2025-07-30 22:57:27,532
2025-07-30 22:57:27,468
2025-07-30 22:57:27,479
2025-07-30 22:57:27,529
2025-07-30 22:57:27,488
2025-07-30 22:57:27,479
2025-07-30 22:57:27,537
2025-07-30 22:57:27,512
2025-07-30 22:57:27,482
2025-07-30 22:57:27,524
2025-07-30 22:57:27,516
2025-07-30 22:57:27,470
2025-07-30 22:57:27,520
2025-07-30 22:57:27,552
2025-07-30 22:57:27,473
2025-07-30 22:57:27,493
2025-07-30 22:57:27,521
2025-07-30 22:57:27,475
2025-07-30 22:57:27,481
2025-07-30 22:57:27,525
2025-07-30 22:57:27,488
2025-07-30 22:57:27,471
2025-07-30 22:57:27,524
2025-07-30 22:57:27,498
2025-07-30 22:57:27,472
2025-07-30 22:57:27,535
2025-07-30 22:57:27,514
2025-07-30 22:57:27,464
2025-07-30 22:57:27,511
2025-07-30 22:57:27,515
2025-07-30 22:57:27,454
2025-07-30 22:57:27,479
2025-07-30 22:57:27,525
2025-07-30 22:57:27,467
2025-07-30 22:57:27,468
2025-07-30 22:57:27,515
2025-07-30 22:57:27,471
2025-07-30 22:57:27,451
2025-07-30 22:57:27,514
2025-07-30 22:57:27,492
2025-07-30 22:57:27,462
2025-07-30 22:57:27,513
2025-07-30 22:57:27,509
2025-07-30 22:57:27,449
2025-07-30 22:57:27,485
2025-07-30 22:57:27,500
2025-07-30 22:57:27,450
2025-07-30 22:57:27,478
2025-07-30 22:57:27,513
2025-07-30 22:57:27,455
2025-07-30 22:57:27,472
2025-07-30 22:57:27,526
2025-07-30 22:57:27,490
2025-07-30 22:57:27,458
2025-07-30 22:57:27,518
2025-07-30 22:57:27,490
2025-07-30 22:57:27,465
2025-07-30 22:57:27,495
2025-07-30 22:57:27,517
2025-07-30 22:57:27,472
2025-07-30 22:57:27,496
2025-07-30 22:57:27,521
2025-07-30 22:57:27,483
2025-07-30 22:57:27,518
2025-07-30 22:57:27,543
2025-07-30 22:57:27,482
2025-07-30 22:57:27,486
2025-07-30 22:57:27,537
2025-07-30 22:57:27,502
2025-07-30 22:57:27,481
2025-07-30 22:57:27,549
2025-07-30 22:57:27,502
2025-07-30 22:57:27,461
2025-07-30 22:57:27,515
2025-07-30 22:57:27,525
2025-07-30 22:57:27,476
2025-07-30 22:57:27,512
2025-07-30 22:57:27,535
2025-07-30 22:57:27,480
2025-07-30 22:57:27,500
2025-07-30 22:57:27,556
2025-07-30 22:57:27,499
2025-07-30 22:57:27,484
2025-07-30 22:57:27,531
2025-07-30 22:57:27,513
2025-07-30 22:57:27,478
2025-07-30 22:57:27,534
2025-07-30 22:57:27,515
2025-07-30 22:57:27,476
2025-07-30 22:57:27,524
2025-07-30 22:57:27,519
2025-07-30 22:57:27,481
2025-07-30 22:57:27,515
2025-07-30 22:57:27,529
2025-07-30 22:57:27,465
2025-07-30 22:57:27,486
2025-07-30 22:57:28,538
2025-07-30 22:57:28,509
2025-07-30 22:57:28,492
2025-07-30 22:57:28,551
2025-07-30 22:57:28,523
2025-07-30 22:57:28,490
2025-07-30 22:57:28,557
2025-07-30 22:57:28,559
2025-07-30 22:57:28,494
2025-07-30 22:57:28,532
2025-07-30 22:57:28,539
2025-07-30 22:57:28,488
2025-07-30 22:57:28,521
2025-07-30 22:57:28,547
2025-07-30 22:57:28,498
2025-07-30 22:57:28,503
2025-07-30 22:57:28,551
2025-07-30 22:57:28,506
2025-07-30 22:57:28,492
2025-07-30 22:57:28,553
2025-07-30 22:57:28,544
2025-07-30 22:57:28,501
2025-07-30 22:57:28,551
2025-07-30 22:57:28,554
2025-07-30 22:57:28,495
2025-07-30 22:57:28,542
2025-07-30 22:57:28,541
2025-07-30 22:57:28,479
2025-07-30 22:57:28,506
2025-07-30 22:57:28,550
2025-07-30 22:57:28,491
2025-07-30 22:57:28,505
2025-07-30 22:57:28,552
2025-07-30 22:57:28,490
2025-07-30 22:57:28,479
2025-07-30 22:57:28,558
2025-07-30 22:57:28,534
2025-07-30 22:57:28,509
2025-07-30 22:57:28,523
2025-07-30 22:57:28,525
2025-07-30 22:57:28,468
2025-07-30 22:57:28,503
2025-07-30 22:57:28,528
2025-07-30 22:57:28,482
2025-07-30 22:57:28,494
2025-07-30 22:57:28,524
2025-07-30 22:57:28,461
2025-07-30 22:57:28,456
2025-07-30 22:57:28,505
2025-07-30 22:57:28,472
2025-07-30 22:57:28,426
2025-07-30 22:57:28,468
2025-07-30 22:57:28,433
2025-07-30 22:57:28,393
2025-07-30 22:57:28,439
2025-07-30 22:57:28,440
2025-07-30 22:57:28,411
2025-07-30 22:57:28,452
2025-07-30 22:57:28,460
2025-07-30 22:57:28,391
2025-07-30 22:57:28,403
2025-07-30 22:57:28,462
2025-07-30 22:57:28,429
2025-07-30 22:57:28,393
2025-07-30 22:57:28,436
2025-07-30 22:57:28,394
2025-07-30 22:57:28,379
2025-07-30 22:57:28,438
2025-07-30 22:57:28,422
2025-07-30 22:57:28,380
2025-07-30 22:57:28,431
2025-07-30 22:57:28,440
2025-07-30 22:57:28,396
2025-07-30 22:57:28,440
2025-07-30 22:57:28,454
2025-07-30 22:57:28,418
2025-07-30 22:57:28,434
2025-07-30 22:57:28,462
2025-07-30 22:57:28,406
2025-07-30 22:57:28,399
2025-07-30 22:57:28,460
2025-07-30 22:57:28,431
2025-07-30 22:57:28,415
2025-07-30 22:57:28,468
2025-07-30 22:57:28,407
2025-07-30 22:57:28,376
2025-07-30 22:57:28,441
2025-07-30 22:57:28,447
2025-07-30 22:57:28,406
2025-07-30 22:57:28,450
2025-07-30 22:57:28,473
2025-07-30 22:57:28,399
2025-07-30 22:57:28,431
2025-07-30 22:57:28,471
2025-07-30 22:57:28,440
2025-07-30 22:57:28,452
2025-07-30 22:57:28,496
2025-07-30 22:57:28,460
2025-07-30 22:57:28,443
2025-07-30 22:57:28,485
2025-07-30 22:57:28,455
2025-07-30 22:57:28,406
2025-07-30 22:57:28,455
2025-07-30 22:57:28,462
2025-07-30 22:57:28,414
2025-07-30 22:57:28,449
2025-07-30 22:57:28,488
2025-07-30 22:57:28,439
2025-07-30 22:57:28,457
2025-07-30 22:57:28,498
2025-07-30 22:57:28,456
2025-07-30 22:57:28,451
2025-07-30 22:57:28,496
2025-07-30 22:57:28,485
2025-07-30 22:57:28,471
2025-07-30 22:57:28,498
2025-07-30 22:57:28,521
2025-07-30 22:57:28,456
2025-07-30 22:57:28,475
2025-07-30 22:57:28,490
2025-07-30 22:57:28,435
2025-07-30 22:57:28,473
2025-07-30 22:57:28,518
2025-07-30 22:57:28,460
2025-07-30 22:57:28,476
2025-07-30 22:57:28,526
2025-07-30 22:57:28,478
2025-07-30 22:57:28,467
2025-07-30 22:57:28,512
2025-07-30 22:57:28,483
2025-07-30 22:57:28,456
2025-07-30 22:57:28,495
2025-07-30 22:57:28,485
2025-07-30 22:57:28,445
2025-07-30 22:57:28,499
2025-07-30 22:57:28,513
2025-07-30 22:57:28,450
2025-07-30 22:57:28,485
2025-07-30 22:57:28,524
2025-07-30 22:57:28,468
2025-07-30 22:57:28,478
2025-07-30 22:57:28,522
2025-07-30 22:57:28,496
2025-07-30 22:57:28,493
2025-07-30 22:57:28,532
2025-07-30 22:57:28,486
2025-07-30 22:57:28,465
2025-07-30 22:57:28,542
2025-07-30 22:57:28,514
2025-07-30 22:57:28,447
2025-07-30 22:57:28,491
2025-07-30 22:57:28,511
2025-07-30 22:57:28,465
2025-07-30 22:57:28,490
2025-07-30 22:57:28,528
2025-07-30 22:57:28,480
2025-07-30 22:57:28,488
2025-07-30 22:57:28,538
2025-07-30 22:57:28,510
2025-07-30 22:57:28,469
2025-07-30 22:57:28,512
2025-07-30 22:57:28,496
2025-07-30 22:57:28,457
2025-07-30 22:57:28,529
2025-07-30 22:57:28,516
2025-07-30 22:57:28,454
2025-07-30 22:57:28,488
2025-07-30 22:57:28,506
2025-07-30 22:57:28,465
2025-07-30 22:57:28,497
2025-07-30 22:57:28,546
2025-07-30 22:57:28,497
2025-07-30 22:57:28,490
2025-07-30 22:57:28,521
2025-07-30 22:57:28,475
2025-07-30 22:57:28,448
2025-07-30 22:57:28,508
2025-07-30 22:57:28,496
2025-07-30 22:57:28,476
2025-07-30 22:57:28,510
2025-07-30 22:57:28,513
2025-07-30 22:57:28,465
2025-07-30 22:57:28,497
2025-07-30 22:57:28,525
2025-07-30 22:57:28,486
2025-07-30 22:57:28,505
2025-07-30 22:57:28,536
2025-07-30 22:57:28,495
2025-07-30 22:57:28,492
2025-07-30 22:57:28,544
2025-07-30 22:57:28,504
2025-07-30 22:57:28,462
2025-07-30 22:57:28,498
2025-07-30 22:57:28,500
2025-07-30 22:57:29,469
2025-07-30 22:57:29,515
2025-07-30 22:57:29,508
2025-07-30 22:57:29,468
2025-07-30 22:57:29,500
2025-07-30 22:57:29,522
2025-07-30 22:57:29,476
2025-07-30 22:57:29,513
2025-07-30 22:57:29,539
2025-07-30 22:57:29,484
2025-07-30 22:57:29,485
2025-07-30 22:57:29,539
2025-07-30 22:57:29,503
2025-07-30 22:57:29,459
2025-07-30 22:57:29,510
2025-07-30 22:57:29,495
2025-07-30 22:57:29,458
2025-07-30 22:57:29,520
2025-07-30 22:57:29,527
2025-07-30 22:57:29,473
2025-07-30 22:57:29,509
2025-07-30 22:57:29,532
2025-07-30 22:57:29,488
2025-07-30 22:57:29,496
2025-07-30 22:57:29,534
2025-07-30 22:57:29,481
2025-07-30 22:57:29,459
2025-07-30 22:57:29,518
2025-07-30 22:57:29,487
2025-07-30 22:57:29,466
2025-07-30 22:57:29,514
2025-07-30 22:57:29,515
2025-07-30 22:57:29,487
2025-07-30 22:57:29,529
2025-07-30 22:57:29,540
2025-07-30 22:57:29,488
2025-07-30 22:57:29,510
2025-07-30 22:57:29,523
2025-07-30 22:57:29,478
2025-07-30 22:57:29,494
2025-07-30 22:57:29,536
2025-07-30 22:57:29,481
2025-07-30 22:57:29,468
2025-07-30 22:57:29,540
2025-07-30 22:57:29,534
2025-07-30 22:57:29,484
2025-07-30 22:57:29,518
2025-07-30 22:57:29,519
2025-07-30 22:57:29,490
2025-07-30 22:57:29,549
2025-07-30 22:57:29,523
2025-07-30 22:57:29,461
2025-07-30 22:57:29,492
2025-07-30 22:57:29,536
2025-07-30 22:57:29,507
2025-07-30 22:57:29,493
2025-07-30 22:57:29,534
2025-07-30 22:57:29,489
2025-07-30 22:57:29,477
2025-07-30 22:57:29,557
2025-07-30 22:57:29,536
2025-07-30 22:57:29,503
2025-07-30 22:57:29,555
2025-07-30 22:57:29,514
2025-07-30 22:57:29,477
2025-07-30 22:57:29,497
2025-07-30 22:57:29,507
2025-07-30 22:57:29,455
2025-07-30 22:57:29,484
2025-07-30 22:57:29,522
2025-07-30 22:57:29,484
2025-07-30 22:57:29,501
2025-07-30 22:57:29,552
2025-07-30 22:57:29,511
2025-07-30 22:57:29,467
2025-07-30 22:57:29,535
2025-07-30 22:57:29,520
2025-07-30 22:57:29,497
2025-07-30 22:57:29,528
2025-07-30 22:57:29,527
2025-07-30 22:57:29,487
2025-07-30 22:57:29,527
2025-07-30 22:57:29,543
2025-07-30 22:57:29,473
2025-07-30 22:57:29,513
2025-07-30 22:57:29,563
2025-07-30 22:57:29,489
2025-07-30 22:57:29,492
2025-07-30 22:57:29,529
2025-07-30 22:57:29,497
2025-07-30 22:57:29,499
2025-07-30 22:57:29,551
2025-07-30 22:57:29,529
2025-07-30 22:57:29,488
2025-07-30 22:57:29,549
2025-07-30 22:57:29,573
2025-07-30 22:57:29,506
2025-07-30 22:57:29,513
2025-07-30 22:57:29,547
2025-07-30 22:57:29,484
2025-07-30 22:57:29,512
2025-07-30 22:57:29,562
2025-07-30 22:57:29,506
2025-07-30 22:57:29,479
2025-07-30 22:57:29,549
2025-07-30 22:57:29,541
2025-07-30 22:57:29,512
2025-07-30 22:57:29,561
2025-07-30 22:57:29,531
2025-07-30 22:57:29,514
2025-07-30 22:57:29,557
2025-07-30 22:57:29,549
2025-07-30 22:57:29,491
2025-07-30 22:57:29,522
2025-07-30 22:57:29,554
2025-07-30 22:57:29,489
2025-07-30 22:57:29,519
2025-07-30 22:57:29,560
2025-07-30 22:57:29,570
2025-07-30 22:57:29,521
2025-07-30 22:57:29,541
2025-07-30 22:57:29,516
2025-07-30 22:57:29,507
2025-07-30 22:57:29,569
2025-07-30 22:57:29,539
2025-07-30 22:57:29,494
2025-07-30 22:57:29,542
2025-07-30 22:57:29,559
2025-07-30 22:57:29,490
2025-07-30 22:57:29,518
2025-07-30 22:57:29,562
2025-07-30 22:57:29,509
2025-07-30 22:57:29,516
2025-07-30 22:57:29,556
2025-07-30 22:57:29,525
2025-07-30 22:57:29,538
2025-07-30 22:57:29,556
2025-07-30 22:57:29,524
2025-07-30 22:57:29,504
2025-07-30 22:57:29,604
2025-07-30 22:57:29,568
2025-07-30 22:57:29,514
2025-07-30 22:57:29,557
2025-07-30 22:57:29,556
2025-07-30 22:57:29,524
2025-07-30 22:57:29,538
2025-07-30 22:57:29,565
2025-07-30 22:57:29,530
2025-07-30 22:57:29,517
2025-07-30 22:57:29,570
2025-07-30 22:57:29,522
2025-07-30 22:57:29,500
2025-07-30 22:57:29,574
2025-07-30 22:57:29,545
2025-07-30 22:57:29,512
2025-07-30 22:57:29,550
2025-07-30 22:57:29,551
2025-07-30 22:57:29,521
2025-07-30 22:57:29,581
2025-07-30 22:57:29,575
2025-07-30 22:57:29,494
2025-07-30 22:57:29,550
2025-07-30 22:57:29,575
2025-07-30 22:57:29,499
2025-07-30 22:57:29,526
2025-07-30 22:57:29,575
2025-07-30 22:57:29,539
2025-07-30 22:57:29,524
2025-07-30 22:57:29,570
2025-07-30 22:57:29,543
2025-07-30 22:57:29,523
2025-07-30 22:57:29,553
2025-07-30 22:57:29,562
2025-07-30 22:57:29,513
2025-07-30 22:57:29,560
2025-07-30 22:57:29,550
2025-07-30 22:57:29,518
2025-07-30 22:57:29,540
2025-07-30 22:57:29,559
2025-07-30 22:57:29,536
2025-07-30 22:57:29,528
2025-07-30 22:57:29,563
2025-07-30 22:57:29,517
2025-07-30 22:57:29,514
2025-07-30 22:57:29,576
2025-07-30 22:57:29,535
2025-07-30 22:57:29,495
2025-07-30 22:57:29,540
2025-07-30 22:57:29,546
2025-07-30 22:57:29,508
2025-07-30 22:57:29,531
2025-07-30 22:57:30,555
2025-07-30 22:57:30,525
2025-07-30 22:57:30,556
2025-07-30 22:57:30,570
2025-07-30 22:57:30,502
2025-07-30 22:57:30,509
2025-07-30 22:57:30,550
2025-07-30 22:57:30,510
2025-07-30 22:57:30,513
2025-07-30 22:57:30,558
2025-07-30 22:57:30,547
2025-07-30 22:57:30,509
2025-07-30 22:57:30,545
2025-07-30 22:57:30,557
2025-07-30 22:57:30,515
2025-07-30 22:57:30,537
2025-07-30 22:57:30,563
2025-07-30 22:57:30,483
2025-07-30 22:57:30,518
2025-07-30 22:57:30,569
2025-07-30 22:57:30,499
2025-07-30 22:57:30,512
2025-07-30 22:57:30,575
2025-07-30 22:57:30,521
2025-07-30 22:57:30,499
2025-07-30 22:57:30,574
2025-07-30 22:57:30,539
2025-07-30 22:57:30,483
2025-07-30 22:57:30,543
2025-07-30 22:57:30,554
2025-07-30 22:57:30,518
2025-07-30 22:57:30,545
2025-07-30 22:57:30,567
2025-07-30 22:57:30,510
2025-07-30 22:57:30,534
2025-07-30 22:57:30,581
2025-07-30 22:57:30,512
2025-07-30 22:57:30,507
2025-07-30 22:57:30,558
2025-07-30 22:57:30,536
2025-07-30 22:57:30,542
2025-07-30 22:57:30,572
2025-07-30 22:57:30,537
2025-07-30 22:57:30,486
2025-07-30 22:57:30,550
2025-07-30 22:57:30,576
2025-07-30 22:57:30,503
2025-07-30 22:57:30,541
2025-07-30 22:57:30,570
2025-07-30 22:57:30,500
2025-07-30 22:57:30,521
2025-07-30 22:57:30,570
2025-07-30 22:57:30,499
2025-07-30 22:57:30,494
2025-07-30 22:57:30,552
2025-07-30 22:57:30,546
2025-07-30 22:57:30,506
2025-07-30 22:57:30,564
2025-07-30 22:57:30,535
2025-07-30 22:57:30,494
2025-07-30 22:57:30,546
2025-07-30 22:57:30,538
2025-07-30 22:57:30,490
2025-07-30 22:57:30,533
2025-07-30 22:57:30,559
2025-07-30 22:57:30,494
2025-07-30 22:57:30,508
2025-07-30 22:57:30,553
2025-07-30 22:57:30,513
2025-07-30 22:57:30,484
2025-07-30 22:57:30,572
2025-07-30 22:57:30,546
2025-07-30 22:57:30,500
2025-07-30 22:57:30,561
2025-07-30 22:57:30,540
2025-07-30 22:57:30,512
2025-07-30 22:57:30,535
2025-07-30 22:57:30,533
2025-07-30 22:57:30,474
2025-07-30 22:57:30,518
2025-07-30 22:57:30,549
2025-07-30 22:57:30,504
2025-07-30 22:57:30,515
2025-07-30 22:57:30,556
2025-07-30 22:57:30,529
2025-07-30 22:57:30,507
2025-07-30 22:57:30,573
2025-07-30 22:57:30,503
2025-07-30 22:57:30,490
2025-07-30 22:57:30,557
2025-07-30 22:57:30,560
2025-07-30 22:57:30,501
2025-07-30 22:57:30,542
2025-07-30 22:57:30,541
2025-07-30 22:57:30,524
2025-07-30 22:57:30,528
2025-07-30 22:57:30,541
2025-07-30 22:57:30,509
2025-07-30 22:57:30,518
2025-07-30 22:57:30,565
2025-07-30 22:57:30,530
2025-07-30 22:57:30,544
2025-07-30 22:57:30,544
2025-07-30 22:57:30,505
2025-07-30 22:57:30,472
2025-07-30 22:57:30,535
2025-07-30 22:57:30,540
2025-07-30 22:57:30,497
2025-07-30 22:57:30,527
2025-07-30 22:57:30,542
2025-07-30 22:57:30,500
2025-07-30 22:57:30,530
2025-07-30 22:57:30,562
2025-07-30 22:57:30,508
2025-07-30 22:57:30,506
2025-07-30 22:57:30,554
2025-07-30 22:57:30,523
2025-07-30 22:57:30,535
2025-07-30 22:57:30,586
2025-07-30 22:57:30,511
2025-07-30 22:57:30,486
2025-07-30 22:57:30,541
2025-07-30 22:57:30,544
2025-07-30 22:57:30,504
2025-07-30 22:57:30,526
2025-07-30 22:57:30,538
2025-07-30 22:57:30,470
2025-07-30 22:57:30,505
2025-07-30 22:57:30,558
2025-07-30 22:57:30,514
2025-07-30 22:57:30,511
2025-07-30 22:57:30,558
2025-07-30 22:57:30,521
2025-07-30 22:57:30,501
2025-07-30 22:57:30,561
2025-07-30 22:57:30,527
2025-07-30 22:57:30,464
2025-07-30 22:57:30,527
2025-07-30 22:57:30,548
2025-07-30 22:57:30,490
2025-07-30 22:57:30,535
2025-07-30 22:57:30,549
2025-07-30 22:57:30,518
2025-07-30 22:57:30,537
2025-07-30 22:57:30,572
2025-07-30 22:57:30,528
2025-07-30 22:57:30,512
2025-07-30 22:57:30,552
2025-07-30 22:57:30,518
2025-07-30 22:57:30,483
2025-07-30 22:57:30,527
2025-07-30 22:57:30,512
2025-07-30 22:57:30,502
2025-07-30 22:57:30,563
2025-07-30 22:57:30,567
2025-07-30 22:57:30,507
2025-07-30 22:57:30,553
2025-07-30 22:57:30,582
2025-07-30 22:57:30,510
2025-07-30 22:57:30,527
2025-07-30 22:57:30,570
2025-07-30 22:57:30,529
2025-07-30 22:57:30,560
2025-07-30 22:57:30,563
2025-07-30 22:57:30,510
2025-07-30 22:57:30,500
2025-07-30 22:57:30,561
2025-07-30 22:57:30,563
2025-07-30 22:57:30,503
2025-07-30 22:57:30,566
2025-07-30 22:57:30,583
2025-07-30 22:57:30,507
2025-07-30 22:57:30,523
2025-07-30 22:57:30,561
2025-07-30 22:57:30,525
2025-07-30 22:57:30,569
2025-07-30 22:57:30,607
2025-07-30 22:57:30,522
2025-07-30 22:57:30,508
2025-07-30 22:57:30,573
2025-07-30 22:57:30,587
2025-07-30 22:57:30,520
2025-07-30 22:57:30,550
2025-07-30 22:57:30,579
2025-07-30 22:57:30,629
2025-07-30 22:57:30,565
2025-07-30 22:57:30,530
2025-07-30 22:57:30,477
2025-07-30 22:57:30,522
2025-07-30 22:57:30,554
2025-07-30 22:57:30,509
2025-07-30 22:57:30,519
2025-07-30 22:57:30,561
2025-07-30 22:57:31,531
2025-07-30 22:57:31,518
2025-07-30 22:57:31,561
2025-07-30 22:57:31,526
2025-07-30 22:57:31,508
2025-07-30 22:57:31,561
2025-07-30 22:57:31,536
2025-07-30 22:57:31,496
2025-07-30 22:57:31,602
2025-07-30 22:57:31,563
2025-07-30 22:57:31,480
2025-07-30 22:57:31,506
2025-07-30 22:57:31,560
2025-07-30 22:57:31,540
2025-07-30 22:57:31,540
2025-07-30 22:57:31,534
2025-07-30 22:57:31,477
2025-07-30 22:57:31,503
2025-07-30 22:57:31,561
2025-07-30 22:57:31,525
2025-07-30 22:57:31,501
2025-07-30 22:57:31,599
2025-07-30 22:57:31,595
2025-07-30 22:57:31,470
2025-07-30 22:57:31,516
2025-07-30 22:57:31,541
2025-07-30 22:57:31,505
2025-07-30 22:57:31,523
2025-07-30 22:57:31,553
2025-07-30 22:57:31,506
2025-07-30 22:57:31,521
2025-07-30 22:57:31,608
2025-07-30 22:57:31,519
2025-07-30 22:57:31,466
2025-07-30 22:57:31,532
2025-07-30 22:57:31,530
2025-07-30 22:57:31,490
2025-07-30 22:57:31,538
2025-07-30 22:57:31,541
2025-07-30 22:57:31,495
2025-07-30 22:57:31,526
2025-07-30 22:57:31,529
2025-07-30 22:57:31,456
2025-07-30 22:57:31,489
2025-07-30 22:57:31,538
2025-07-30 22:57:31,545
2025-07-30 22:57:31,503
2025-07-30 22:57:31,524
2025-07-30 22:57:31,490
2025-07-30 22:57:31,493
2025-07-30 22:57:31,561
2025-07-30 22:57:31,533
2025-07-30 22:57:31,467
2025-07-30 22:57:31,526
2025-07-30 22:57:31,538
2025-07-30 22:57:31,480
2025-07-30 22:57:31,499
2025-07-30 22:57:31,527
2025-07-30 22:57:31,494
2025-07-30 22:57:31,496
2025-07-30 22:57:31,525
2025-07-30 22:57:31,482
2025-07-30 22:57:31,483
2025-07-30 22:57:31,551
2025-07-30 22:57:31,519
2025-07-30 22:57:31,488
2025-07-30 22:57:31,548
2025-07-30 22:57:31,560
2025-07-30 22:57:31,498
2025-07-30 22:57:31,521
2025-07-30 22:57:31,510
2025-07-30 22:57:31,482
2025-07-30 22:57:31,517
2025-07-30 22:57:31,535
2025-07-30 22:57:31,500
2025-07-30 22:57:31,512
2025-07-30 22:57:31,538
2025-07-30 22:57:31,487
2025-07-30 22:57:31,487
2025-07-30 22:57:31,539
2025-07-30 22:57:31,510
2025-07-30 22:57:31,494
2025-07-30 22:57:31,530
2025-07-30 22:57:31,511
2025-07-30 22:57:31,493
2025-07-30 22:57:31,528
2025-07-30 22:57:31,537
2025-07-30 22:57:31,449
2025-07-30 22:57:31,501
2025-07-30 22:57:31,535
2025-07-30 22:57:31,498
2025-07-30 22:57:31,501
2025-07-30 22:57:31,537
2025-07-30 22:57:31,495
2025-07-30 22:57:31,494
2025-07-30 22:57:31,531
2025-07-30 22:57:31,490
2025-07-30 22:57:31,467
2025-07-30 22:57:31,530
2025-07-30 22:57:31,540
2025-07-30 22:57:31,466
2025-07-30 22:57:31,526
2025-07-30 22:57:31,515
2025-07-30 22:57:31,466
2025-07-30 22:57:31,515
2025-07-30 22:57:31,538
2025-07-30 22:57:31,469
2025-07-30 22:57:31,478
2025-07-30 22:57:31,523
2025-07-30 22:57:31,487
2025-07-30 22:57:31,489
2025-07-30 22:57:31,552
2025-07-30 22:57:31,544
2025-07-30 22:57:31,520
2025-07-30 22:57:31,521
2025-07-30 22:57:31,493
2025-07-30 22:57:31,447
2025-07-30 22:57:31,487
2025-07-30 22:57:31,502
2025-07-30 22:57:31,464
2025-07-30 22:57:31,503
2025-07-30 22:57:31,524
2025-07-30 22:57:31,485
2025-07-30 22:57:31,490
2025-07-30 22:57:31,537
2025-07-30 22:57:31,496
2025-07-30 22:57:31,500
2025-07-30 22:57:31,536
2025-07-30 22:57:31,510
2025-07-30 22:57:31,477
2025-07-30 22:57:31,522
2025-07-30 22:57:31,503
2025-07-30 22:57:31,459
2025-07-30 22:57:31,512
2025-07-30 22:57:31,521
2025-07-30 22:57:31,469
2025-07-30 22:57:31,488
2025-07-30 22:57:31,527
2025-07-30 22:57:31,478
2025-07-30 22:57:31,480
2025-07-30 22:57:31,523
2025-07-30 22:57:31,505
2025-07-30 22:57:31,500
2025-07-30 22:57:31,515
2025-07-30 22:57:31,493
2025-07-30 22:57:31,474
2025-07-30 22:57:31,507
2025-07-30 22:57:31,489
2025-07-30 22:57:31,464
2025-07-30 22:57:31,512
2025-07-30 22:57:31,532
2025-07-30 22:57:31,476
2025-07-30 22:57:31,502
2025-07-30 22:57:31,537
2025-07-30 22:57:31,496
2025-07-30 22:57:31,503
2025-07-30 22:57:31,548
2025-07-30 22:57:31,501
2025-07-30 22:57:31,498
2025-07-30 22:57:31,566
2025-07-30 22:57:31,497
2025-07-30 22:57:31,465
2025-07-30 22:57:31,514
2025-07-30 22:57:31,494
2025-07-30 22:57:31,473
2025-07-30 22:57:31,519
2025-07-30 22:57:31,534
2025-07-30 22:57:31,485
2025-07-30 22:57:31,497
2025-07-30 22:57:31,542
2025-07-30 22:57:31,503
2025-07-30 22:57:31,511
2025-07-30 22:57:31,556
2025-07-30 22:57:31,495
2025-07-30 22:57:31,472
2025-07-30 22:57:31,544
2025-07-30 22:57:31,526
2025-07-30 22:57:31,484
2025-07-30 22:57:31,523
2025-07-30 22:57:31,528
2025-07-30 22:57:31,478
2025-07-30 22:57:31,517
2025-07-30 22:57:31,550
2025-07-30 22:57:31,505
2025-07-30 22:57:31,503
2025-07-30 22:57:31,546
2025-07-30 22:57:31,508
2025-07-30 22:57:31,529
2025-07-30 22:57:31,574
2025-07-30 22:57:31,539
2025-07-30 22:57:31,490
2025-07-30 22:57:31,542
2025-07-30 22:57:31,525
2025-07-30 22:57:31,484
2025-07-30 22:57:32,549
2025-07-30 22:57:32,550
2025-07-30 22:57:32,489
2025-07-30 22:57:32,528
2025-07-30 22:57:32,549
2025-07-30 22:57:32,501
2025-07-30 22:57:32,521
2025-07-30 22:57:32,564
2025-07-30 22:57:32,521
2025-07-30 22:57:32,539
2025-07-30 22:57:32,559
2025-07-30 22:57:32,530
2025-07-30 22:57:32,507
2025-07-30 22:57:32,564
2025-07-30 22:57:32,525
2025-07-30 22:57:32,481
2025-07-30 22:57:32,536
2025-07-30 22:57:32,532
2025-07-30 22:57:32,488
2025-07-30 22:57:32,542
2025-07-30 22:57:32,560
2025-07-30 22:57:32,508
2025-07-30 22:57:32,522
2025-07-30 22:57:32,565
2025-07-30 22:57:32,533
2025-07-30 22:57:32,552
2025-07-30 22:57:32,543
2025-07-30 22:57:32,513
2025-07-30 22:57:32,483
2025-07-30 22:57:32,546
2025-07-30 22:57:32,543
2025-07-30 22:57:32,478
2025-07-30 22:57:32,526
2025-07-30 22:57:32,528
2025-07-30 22:57:32,487
2025-07-30 22:57:32,531
2025-07-30 22:57:32,574
2025-07-30 22:57:32,541
2025-07-30 22:57:32,548
2025-07-30 22:57:32,565
2025-07-30 22:57:32,508
2025-07-30 22:57:32,488
2025-07-30 22:57:32,540
2025-07-30 22:57:32,518
2025-07-30 22:57:32,483
2025-07-30 22:57:32,540
2025-07-30 22:57:32,535
2025-07-30 22:57:32,495
2025-07-30 22:57:32,536
2025-07-30 22:57:32,534
2025-07-30 22:57:32,488
2025-07-30 22:57:32,521
2025-07-30 22:57:32,543
2025-07-30 22:57:32,502
2025-07-30 22:57:32,522
2025-07-30 22:57:32,540
2025-07-30 22:57:32,491
2025-07-30 22:57:32,473
2025-07-30 22:57:32,527
2025-07-30 22:57:32,507
2025-07-30 22:57:32,460
2025-07-30 22:57:32,518
2025-07-30 22:57:32,524
2025-07-30 22:57:32,473
2025-07-30 22:57:32,523
2025-07-30 22:57:32,529
2025-07-30 22:57:32,475
2025-07-30 22:57:32,527
2025-07-30 22:57:32,527
2025-07-30 22:57:32,484
2025-07-30 22:57:32,490
2025-07-30 22:57:32,518
2025-07-30 22:57:32,475
2025-07-30 22:57:32,466
2025-07-30 22:57:32,535
2025-07-30 22:57:32,502
2025-07-30 22:57:32,462
2025-07-30 22:57:32,505
2025-07-30 22:57:32,504
2025-07-30 22:57:32,464
2025-07-30 22:57:32,507
2025-07-30 22:57:32,542
2025-07-30 22:57:32,474
2025-07-30 22:57:32,499
2025-07-30 22:57:32,536
2025-07-30 22:57:32,480
2025-07-30 22:57:32,480
2025-07-30 22:57:32,527
2025-07-30 22:57:32,489
2025-07-30 22:57:32,475
2025-07-30 22:57:32,526
2025-07-30 22:57:32,516
2025-07-30 22:57:32,487
2025-07-30 22:57:32,528
2025-07-30 22:57:32,527
2025-07-30 22:57:32,493
2025-07-30 22:57:32,530
2025-07-30 22:57:32,581
2025-07-30 22:57:32,508
2025-07-30 22:57:32,506
2025-07-30 22:57:32,545
2025-07-30 22:57:32,492
2025-07-30 22:57:32,502
2025-07-30 22:57:32,552
2025-07-30 22:57:32,510
2025-07-30 22:57:32,494
2025-07-30 22:57:32,550
2025-07-30 22:57:32,530
2025-07-30 22:57:32,489
2025-07-30 22:57:32,521
2025-07-30 22:57:32,527
2025-07-30 22:57:32,528
2025-07-30 22:57:32,559
2025-07-30 22:57:32,554
2025-07-30 22:57:32,473
2025-07-30 22:57:32,509
2025-07-30 22:57:32,567
2025-07-30 22:57:32,500
2025-07-30 22:57:32,487
2025-07-30 22:57:32,528
2025-07-30 22:57:32,501
2025-07-30 22:57:32,487
2025-07-30 22:57:32,542
2025-07-30 22:57:32,536
2025-07-30 22:57:32,501
2025-07-30 22:57:32,536
2025-07-30 22:57:32,541
2025-07-30 22:57:32,479
2025-07-30 22:57:32,564
2025-07-30 22:57:32,543
2025-07-30 22:57:32,496
2025-07-30 22:57:32,504
2025-07-30 22:57:32,540
2025-07-30 22:57:32,510
2025-07-30 22:57:32,493
2025-07-30 22:57:32,547
2025-07-30 22:57:32,520
2025-07-30 22:57:32,477
2025-07-30 22:57:32,535
2025-07-30 22:57:32,518
2025-07-30 22:57:32,494
2025-07-30 22:57:32,542
2025-07-30 22:57:32,526
2025-07-30 22:57:32,485
2025-07-30 22:57:32,536
2025-07-30 22:57:32,543
2025-07-30 22:57:32,494
2025-07-30 22:57:32,525
2025-07-30 22:57:32,561
2025-07-30 22:57:32,519
2025-07-30 22:57:32,518
2025-07-30 22:57:32,547
2025-07-30 22:57:32,529
2025-07-30 22:57:32,511
2025-07-30 22:57:32,588
2025-07-30 22:57:32,563
2025-07-30 22:57:32,491
2025-07-30 22:57:32,529
2025-07-30 22:57:32,541
2025-07-30 22:57:32,484
2025-07-30 22:57:32,524
2025-07-30 22:57:32,547
2025-07-30 22:57:32,489
2025-07-30 22:57:32,501
2025-07-30 22:57:32,550
2025-07-30 22:57:32,509
2025-07-30 22:57:32,495
2025-07-30 22:57:32,570
2025-07-30 22:57:32,541
2025-07-30 22:57:32,499
2025-07-30 22:57:32,561
2025-07-30 22:57:32,571
2025-07-30 22:57:32,504
2025-07-30 22:57:32,524
2025-07-30 22:57:32,533
2025-07-30 22:57:32,483
2025-07-30 22:57:32,513
2025-07-30 22:57:32,547
2025-07-30 22:57:32,497
2025-07-30 22:57:32,509
2025-07-30 22:57:32,562
2025-07-30 22:57:32,523
2025-07-30 22:57:32,517
2025-07-30 22:57:32,579
2025-07-30 22:57:32,593
2025-07-30 22:57:32,507
2025-07-30 22:57:32,536
2025-07-30 22:57:32,524
2025-07-30 22:57:32,483
2025-07-30 22:57:32,523
2025-07-30 22:57:33,551
2025-07-30 22:57:33,504
2025-07-30 22:57:33,520
2025-07-30 22:57:33,556
2025-07-30 22:57:33,504
2025-07-30 22:57:33,506
2025-07-30 22:57:33,558
2025-07-30 22:57:33,518
2025-07-30 22:57:33,499
2025-07-30 22:57:33,583
2025-07-30 22:57:33,559
2025-07-30 22:57:33,483
2025-07-30 22:57:33,530
2025-07-30 22:57:33,528
2025-07-30 22:57:33,493
2025-07-30 22:57:33,532
2025-07-30 22:57:33,543
2025-07-30 22:57:33,500
2025-07-30 22:57:33,524
2025-07-30 22:57:33,553
2025-07-30 22:57:33,502
2025-07-30 22:57:33,507
2025-07-30 22:57:33,556
2025-07-30 22:57:33,549
2025-07-30 22:57:33,502
2025-07-30 22:57:33,565
2025-07-30 22:57:33,538
2025-07-30 22:57:33,498
2025-07-30 22:57:33,539
2025-07-30 22:57:33,542
2025-07-30 22:57:33,483
2025-07-30 22:57:33,517
2025-07-30 22:57:33,548
2025-07-30 22:57:33,496
2025-07-30 22:57:33,524
2025-07-30 22:57:33,558
2025-07-30 22:57:33,509
2025-07-30 22:57:33,516
2025-07-30 22:57:33,592
2025-07-30 22:57:33,503
2025-07-30 22:57:33,479
2025-07-30 22:57:33,549
2025-07-30 22:57:33,530
2025-07-30 22:57:33,498
2025-07-30 22:57:33,546
2025-07-30 22:57:33,550
2025-07-30 22:57:33,506
2025-07-30 22:57:33,546
2025-07-30 22:57:33,562
2025-07-30 22:57:33,502
2025-07-30 22:57:33,512
2025-07-30 22:57:33,559
2025-07-30 22:57:33,519
2025-07-30 22:57:33,514
2025-07-30 22:57:33,562
2025-07-30 22:57:33,529
2025-07-30 22:57:33,511
2025-07-30 22:57:33,550
2025-07-30 22:57:33,542
2025-07-30 22:57:33,501
2025-07-30 22:57:33,537
2025-07-30 22:57:33,543
2025-07-30 22:57:33,493
2025-07-30 22:57:33,528
2025-07-30 22:57:33,554
2025-07-30 22:57:33,500
2025-07-30 22:57:33,522
2025-07-30 22:57:33,573
2025-07-30 22:57:33,522
2025-07-30 22:57:33,520
2025-07-30 22:57:33,574
2025-07-30 22:57:33,545
2025-07-30 22:57:33,519
2025-07-30 22:57:33,568
2025-07-30 22:57:33,551
2025-07-30 22:57:33,514
2025-07-30 22:57:33,532
2025-07-30 22:57:33,546
2025-07-30 22:57:33,509
2025-07-30 22:57:33,536
2025-07-30 22:57:33,556
2025-07-30 22:57:33,507
2025-07-30 22:57:33,527
2025-07-30 22:57:33,566
2025-07-30 22:57:33,540
2025-07-30 22:57:33,511
2025-07-30 22:57:33,577
2025-07-30 22:57:33,552
2025-07-30 22:57:33,531
2025-07-30 22:57:33,584
2025-07-30 22:57:33,580
2025-07-30 22:57:33,524
2025-07-30 22:57:33,554
2025-07-30 22:57:33,560
2025-07-30 22:57:33,510
2025-07-30 22:57:33,527
2025-07-30 22:57:33,564
2025-07-30 22:57:33,515
2025-07-30 22:57:33,530
2025-07-30 22:57:33,572
2025-07-30 22:57:33,504
2025-07-30 22:57:33,506
2025-07-30 22:57:33,559
2025-07-30 22:57:33,533
2025-07-30 22:57:33,490
2025-07-30 22:57:33,545
2025-07-30 22:57:33,549
2025-07-30 22:57:33,500
2025-07-30 22:57:33,523
2025-07-30 22:57:33,529
2025-07-30 22:57:33,482
2025-07-30 22:57:33,527
2025-07-30 22:57:33,569
2025-07-30 22:57:33,502
2025-07-30 22:57:33,509
2025-07-30 22:57:33,556
2025-07-30 22:57:33,521
2025-07-30 22:57:33,506
2025-07-30 22:57:33,557
2025-07-30 22:57:33,524
2025-07-30 22:57:33,477
2025-07-30 22:57:33,515
2025-07-30 22:57:33,517
2025-07-30 22:57:33,476
2025-07-30 22:57:33,518
2025-07-30 22:57:33,543
2025-07-30 22:57:33,489
2025-07-30 22:57:33,515
2025-07-30 22:57:33,554
2025-07-30 22:57:33,482
2025-07-30 22:57:33,494
2025-07-30 22:57:33,552
2025-07-30 22:57:33,491
2025-07-30 22:57:33,483
2025-07-30 22:57:33,554
2025-07-30 22:57:33,522
2025-07-30 22:57:33,479
2025-07-30 22:57:33,513
2025-07-30 22:57:33,510
2025-07-30 22:57:33,462
2025-07-30 22:57:33,504
2025-07-30 22:57:33,538
2025-07-30 22:57:33,480
2025-07-30 22:57:33,489
2025-07-30 22:57:33,531
2025-07-30 22:57:33,496
2025-07-30 22:57:33,501
2025-07-30 22:57:33,545
2025-07-30 22:57:33,491
2025-07-30 22:57:33,462
2025-07-30 22:57:33,520
2025-07-30 22:57:33,521
2025-07-30 22:57:33,492
2025-07-30 22:57:33,535
2025-07-30 22:57:33,517
2025-07-30 22:57:33,473
2025-07-30 22:57:33,509
2025-07-30 22:57:33,518
2025-07-30 22:57:33,467
2025-07-30 22:57:33,474
2025-07-30 22:57:33,536
2025-07-30 22:57:33,510
2025-07-30 22:57:33,521
2025-07-30 22:57:33,553
2025-07-30 22:57:33,484
2025-07-30 22:57:33,447
2025-07-30 22:57:33,505
2025-07-30 22:57:33,508
2025-07-30 22:57:33,485
2025-07-30 22:57:33,523
2025-07-30 22:57:33,517
2025-07-30 22:57:33,471
2025-07-30 22:57:33,504
2025-07-30 22:57:33,536
2025-07-30 22:57:33,494
2025-07-30 22:57:33,528
2025-07-30 22:57:33,568
2025-07-30 22:57:33,520
2025-07-30 22:57:33,490
2025-07-30 22:57:33,529
2025-07-30 22:57:33,507
2025-07-30 22:57:33,465
2025-07-30 22:57:33,522
2025-07-30 22:57:33,533
2025-07-30 22:57:33,471
2025-07-30 22:57:33,515
2025-07-30 22:57:33,530
2025-07-30 22:57:33,468
2025-07-30 22:57:33,495
2025-07-30 22:57:33,526
2025-07-30 22:57:33,485
2025-07-30 22:57:33,493
2025-07-30 22:57:33,528
2025-07-30 22:57:33,532
2025-07-30 22:57:34,525
2025-07-30 22:57:34,582
2025-07-30 22:57:34,540
2025-07-30 22:57:34,487
2025-07-30 22:57:34,515
2025-07-30 22:57:34,515
2025-07-30 22:57:34,472
2025-07-30 22:57:34,534
2025-07-30 22:57:34,533
2025-07-30 22:57:34,473
2025-07-30 22:57:34,499
2025-07-30 22:57:34,536
2025-07-30 22:57:34,498
2025-07-30 22:57:34,524
2025-07-30 22:57:34,571
2025-07-30 22:57:34,490
2025-07-30 22:57:34,467
2025-07-30 22:57:34,536
2025-07-30 22:57:34,532
2025-07-30 22:57:34,505
2025-07-30 22:57:34,564
2025-07-30 22:57:34,537
2025-07-30 22:57:34,466
2025-07-30 22:57:34,513
2025-07-30 22:57:34,538
2025-07-30 22:57:34,494
2025-07-30 22:57:34,491
2025-07-30 22:57:34,503
2025-07-30 22:57:34,459
2025-07-30 22:57:34,487
2025-07-30 22:57:34,532
2025-07-30 22:57:34,495
2025-07-30 22:57:34,455
2025-07-30 22:57:34,534
2025-07-30 22:57:34,536
2025-07-30 22:57:34,522
2025-07-30 22:57:34,540
2025-07-30 22:57:34,524
2025-07-30 22:57:34,474
2025-07-30 22:57:34,537
2025-07-30 22:57:34,567
2025-07-30 22:57:34,510
2025-07-30 22:57:34,512
2025-07-30 22:57:34,532
2025-07-30 22:57:34,481
2025-07-30 22:57:34,497
2025-07-30 22:57:34,564
2025-07-30 22:57:34,544
2025-07-30 22:57:34,474
2025-07-30 22:57:34,526
2025-07-30 22:57:34,520
2025-07-30 22:57:34,493
