Timestamp,Valor Analogico
2025-07-30 23:07:37,437
2025-07-30 23:07:37,434
2025-07-30 23:07:37,421
2025-07-30 23:07:37,406
2025-07-30 23:07:37,393
2025-07-30 23:07:37,386
2025-07-30 23:07:37,384
2025-07-30 23:07:37,378
2025-07-30 23:07:37,368
2025-07-30 23:07:37,355
2025-07-30 23:07:37,336
2025-07-30 23:07:37,314
2025-07-30 23:07:37,293
2025-07-30 23:07:37,277
2025-07-30 23:07:37,271
2025-07-30 23:07:37,278
2025-07-30 23:07:37,292
2025-07-30 23:07:37,309
2025-07-30 23:07:37,316
2025-07-30 23:07:37,285
2025-07-30 23:07:37,333
2025-07-30 23:07:37,336
2025-07-30 23:07:37,291
2025-07-30 23:07:37,315
2025-07-30 23:07:37,350
2025-07-30 23:07:37,319
2025-07-30 23:07:37,347
2025-07-30 23:07:37,368
2025-07-30 23:07:37,319
2025-07-30 23:07:37,321
2025-07-30 23:07:37,386
2025-07-30 23:07:37,340
2025-07-30 23:07:37,301
2025-07-30 23:07:37,355
2025-07-30 23:07:37,361
2025-07-30 23:07:37,316
2025-07-30 23:07:37,364
2025-07-30 23:07:37,367
2025-07-30 23:07:37,324
2025-07-30 23:07:37,342
2025-07-30 23:07:37,391
2025-07-30 23:07:37,354
2025-07-30 23:07:37,334
2025-07-30 23:07:37,371
2025-07-30 23:07:37,337
2025-07-30 23:07:37,325
2025-07-30 23:07:37,385
2025-07-30 23:07:37,376
2025-07-30 23:07:37,339
2025-07-30 23:07:37,384
2025-07-30 23:07:37,393
2025-07-30 23:07:37,351
2025-07-30 23:07:37,385
2025-07-30 23:07:37,392
2025-07-30 23:07:37,361
2025-07-30 23:07:37,375
2025-07-30 23:07:37,423
2025-07-30 23:07:37,363
2025-07-30 23:07:37,336
2025-07-30 23:07:37,363
2025-07-30 23:07:37,348
2025-07-30 23:07:37,356
2025-07-30 23:07:37,369
2025-07-30 23:07:37,366
2025-07-30 23:07:37,334
2025-07-30 23:07:37,383
2025-07-30 23:07:37,392
2025-07-30 23:07:37,338
2025-07-30 23:07:37,370
2025-07-30 23:07:37,381
2025-07-30 23:07:37,346
2025-07-30 23:07:37,371
2025-07-30 23:07:37,399
2025-07-30 23:07:37,376
2025-07-30 23:07:37,409
2025-07-30 23:07:37,409
2025-07-30 23:07:37,364
2025-07-30 23:07:37,362
2025-07-30 23:07:37,409
2025-07-30 23:07:37,400
2025-07-30 23:07:37,364
2025-07-30 23:07:37,408
2025-07-30 23:07:37,401
2025-07-30 23:07:37,370
2025-07-30 23:07:37,394
2025-07-30 23:07:37,422
2025-07-30 23:07:37,377
2025-07-30 23:07:37,403
2025-07-30 23:07:37,455
2025-07-30 23:07:37,403
2025-07-30 23:07:37,403
2025-07-30 23:07:37,427
2025-07-30 23:07:37,390
2025-07-30 23:07:37,386
2025-07-30 23:07:37,451
2025-07-30 23:07:37,449
2025-07-30 23:07:37,394
2025-07-30 23:07:37,424
2025-07-30 23:07:37,438
2025-07-30 23:07:37,407
2025-07-30 23:07:37,440
2025-07-30 23:07:37,456
2025-07-30 23:07:37,411
2025-07-30 23:07:37,444
2025-07-30 23:07:37,485
2025-07-30 23:07:37,424
2025-07-30 23:07:37,410
2025-07-30 23:07:37,448
2025-07-30 23:07:37,446
2025-07-30 23:07:37,415
2025-07-30 23:07:37,475
2025-07-30 23:07:37,433
2025-07-30 23:07:37,407
2025-07-30 23:07:37,462
2025-07-30 23:07:37,466
2025-07-30 23:07:37,426
2025-07-30 23:07:37,463
2025-07-30 23:07:37,496
2025-07-30 23:07:37,447
2025-07-30 23:07:37,455
2025-07-30 23:07:37,515
2025-07-30 23:07:37,440
2025-07-30 23:07:38,439
2025-07-30 23:07:38,482
2025-07-30 23:07:38,473
2025-07-30 23:07:38,455
2025-07-30 23:07:38,490
2025-07-30 23:07:38,481
2025-07-30 23:07:38,437
2025-07-30 23:07:38,490
2025-07-30 23:07:38,491
2025-07-30 23:07:38,447
2025-07-30 23:07:38,468
2025-07-30 23:07:38,500
2025-07-30 23:07:38,448
2025-07-30 23:07:38,464
2025-07-30 23:07:38,518
2025-07-30 23:07:38,460
2025-07-30 23:07:38,465
2025-07-30 23:07:38,507
2025-07-30 23:07:38,472
2025-07-30 23:07:38,451
2025-07-30 23:07:38,494
2025-07-30 23:07:38,481
2025-07-30 23:07:38,454
2025-07-30 23:07:38,495
2025-07-30 23:07:38,527
2025-07-30 23:07:38,516
2025-07-30 23:07:38,518
2025-07-30 23:07:38,520
2025-07-30 23:07:38,476
2025-07-30 23:07:38,487
2025-07-30 23:07:38,531
2025-07-30 23:07:38,487
2025-07-30 23:07:38,462
2025-07-30 23:07:38,503
2025-07-30 23:07:38,518
2025-07-30 23:07:38,467
2025-07-30 23:07:38,504
2025-07-30 23:07:38,480
2025-07-30 23:07:38,453
2025-07-30 23:07:38,510
2025-07-30 23:07:38,532
2025-07-30 23:07:38,469
2025-07-30 23:07:38,508
2025-07-30 23:07:38,533
2025-07-30 23:07:38,502
2025-07-30 23:07:38,516
2025-07-30 23:07:38,552
2025-07-30 23:07:38,507
2025-07-30 23:07:38,491
2025-07-30 23:07:38,541
2025-07-30 23:07:38,507
2025-07-30 23:07:38,477
2025-07-30 23:07:38,528
2025-07-30 23:07:38,540
2025-07-30 23:07:38,509
2025-07-30 23:07:38,514
2025-07-30 23:07:38,522
2025-07-30 23:07:38,484
2025-07-30 23:07:38,524
2025-07-30 23:07:38,559
2025-07-30 23:07:38,501
2025-07-30 23:07:38,498
2025-07-30 23:07:38,552
2025-07-30 23:07:38,530
2025-07-30 23:07:38,534
2025-07-30 23:07:38,542
2025-07-30 23:07:38,505
2025-07-30 23:07:38,497
2025-07-30 23:07:38,554
2025-07-30 23:07:38,552
2025-07-30 23:07:38,502
2025-07-30 23:07:38,549
2025-07-30 23:07:38,567
2025-07-30 23:07:38,512
2025-07-30 23:07:38,546
2025-07-30 23:07:38,588
2025-07-30 23:07:38,540
2025-07-30 23:07:38,542
2025-07-30 23:07:38,587
2025-07-30 23:07:38,525
2025-07-30 23:07:38,507
2025-07-30 23:07:38,593
2025-07-30 23:07:38,553
2025-07-30 23:07:38,513
2025-07-30 23:07:38,568
2025-07-30 23:07:38,552
2025-07-30 23:07:38,524
2025-07-30 23:07:38,565
2025-07-30 23:07:38,574
2025-07-30 23:07:38,544
2025-07-30 23:07:38,554
2025-07-30 23:07:38,624
2025-07-30 23:07:38,560
2025-07-30 23:07:38,521
2025-07-30 23:07:38,583
2025-07-30 23:07:38,568
2025-07-30 23:07:38,574
2025-07-30 23:07:38,604
2025-07-30 23:07:38,592
2025-07-30 23:07:38,558
2025-07-30 23:07:38,587
2025-07-30 23:07:38,603
2025-07-30 23:07:38,559
2025-07-30 23:07:38,598
2025-07-30 23:07:38,619
2025-07-30 23:07:38,553
2025-07-30 23:07:38,563
2025-07-30 23:07:38,583
2025-07-30 23:07:38,562
2025-07-30 23:07:38,561
2025-07-30 23:07:38,588
2025-07-30 23:07:38,567
2025-07-30 23:07:38,563
2025-07-30 23:07:38,607
2025-07-30 23:07:38,574
2025-07-30 23:07:38,540
2025-07-30 23:07:38,597
2025-07-30 23:07:38,607
2025-07-30 23:07:38,543
2025-07-30 23:07:38,587
2025-07-30 23:07:38,588
2025-07-30 23:07:38,539
2025-07-30 23:07:38,550
2025-07-30 23:07:38,571
2025-07-30 23:07:38,538
2025-07-30 23:07:38,539
2025-07-30 23:07:38,578
2025-07-30 23:07:38,554
2025-07-30 23:07:38,537
2025-07-30 23:07:38,578
2025-07-30 23:07:38,569
2025-07-30 23:07:38,542
2025-07-30 23:07:38,583
2025-07-30 23:07:38,585
2025-07-30 23:07:38,564
2025-07-30 23:07:38,604
2025-07-30 23:07:38,570
2025-07-30 23:07:38,514
2025-07-30 23:07:38,551
2025-07-30 23:07:38,600
2025-07-30 23:07:38,541
2025-07-30 23:07:38,541
2025-07-30 23:07:38,594
2025-07-30 23:07:38,565
2025-07-30 23:07:38,569
2025-07-30 23:07:38,606
2025-07-30 23:07:38,563
2025-07-30 23:07:38,537
2025-07-30 23:07:38,586
2025-07-30 23:07:38,605
2025-07-30 23:07:38,525
2025-07-30 23:07:38,553
2025-07-30 23:07:38,601
2025-07-30 23:07:38,571
2025-07-30 23:07:38,582
2025-07-30 23:07:38,590
2025-07-30 23:07:38,560
2025-07-30 23:07:38,578
2025-07-30 23:07:38,612
2025-07-30 23:07:38,564
2025-07-30 23:07:38,550
2025-07-30 23:07:38,604
2025-07-30 23:07:38,582
2025-07-30 23:07:38,554
2025-07-30 23:07:38,590
2025-07-30 23:07:38,585
2025-07-30 23:07:38,560
2025-07-30 23:07:38,600
2025-07-30 23:07:38,641
2025-07-30 23:07:38,592
2025-07-30 23:07:38,637
2025-07-30 23:07:38,685
2025-07-30 23:07:38,636
2025-07-30 23:07:38,635
2025-07-30 23:07:38,661
2025-07-30 23:07:38,620
2025-07-30 23:07:38,624
2025-07-30 23:07:38,681
2025-07-30 23:07:38,662
2025-07-30 23:07:38,608
2025-07-30 23:07:38,652
2025-07-30 23:07:38,668
2025-07-30 23:07:38,644
2025-07-30 23:07:38,622
2025-07-30 23:07:38,648
2025-07-30 23:07:38,579
2025-07-30 23:07:38,599
2025-07-30 23:07:38,635
2025-07-30 23:07:38,610
2025-07-30 23:07:38,603
2025-07-30 23:07:38,625
2025-07-30 23:07:38,604
2025-07-30 23:07:38,572
2025-07-30 23:07:39,623
2025-07-30 23:07:39,646
2025-07-30 23:07:39,621
2025-07-30 23:07:39,655
2025-07-30 23:07:39,671
2025-07-30 23:07:39,643
2025-07-30 23:07:39,672
2025-07-30 23:07:39,694
2025-07-30 23:07:39,644
2025-07-30 23:07:39,664
2025-07-30 23:07:39,663
2025-07-30 23:07:39,626
2025-07-30 23:07:39,616
2025-07-30 23:07:39,655
2025-07-30 23:07:39,607
2025-07-30 23:07:39,559
2025-07-30 23:07:39,595
2025-07-30 23:07:39,590
2025-07-30 23:07:39,548
2025-07-30 23:07:39,585
2025-07-30 23:07:39,586
2025-07-30 23:07:39,542
2025-07-30 23:07:39,574
2025-07-30 23:07:39,603
2025-07-30 23:07:39,550
2025-07-30 23:07:39,539
2025-07-30 23:07:39,580
2025-07-30 23:07:39,546
2025-07-30 23:07:39,505
2025-07-30 23:07:39,570
2025-07-30 23:07:39,555
2025-07-30 23:07:39,526
2025-07-30 23:07:39,565
2025-07-30 23:07:39,561
2025-07-30 23:07:39,541
2025-07-30 23:07:39,565
2025-07-30 23:07:39,555
2025-07-30 23:07:39,512
2025-07-30 23:07:39,550
2025-07-30 23:07:39,580
2025-07-30 23:07:39,537
2025-07-30 23:07:39,537
2025-07-30 23:07:39,562
2025-07-30 23:07:39,535
2025-07-30 23:07:39,535
2025-07-30 23:07:39,570
2025-07-30 23:07:39,547
2025-07-30 23:07:39,488
2025-07-30 23:07:39,551
2025-07-30 23:07:39,550
2025-07-30 23:07:39,516
2025-07-30 23:07:39,541
2025-07-30 23:07:39,566
2025-07-30 23:07:39,525
2025-07-30 23:07:39,546
2025-07-30 23:07:39,552
2025-07-30 23:07:39,501
2025-07-30 23:07:39,524
2025-07-30 23:07:39,571
2025-07-30 23:07:39,545
2025-07-30 23:07:39,509
2025-07-30 23:07:39,539
2025-07-30 23:07:39,518
2025-07-30 23:07:39,512
2025-07-30 23:07:39,544
2025-07-30 23:07:39,545
2025-07-30 23:07:39,526
2025-07-30 23:07:39,545
2025-07-30 23:07:39,546
2025-07-30 23:07:39,518
2025-07-30 23:07:39,546
2025-07-30 23:07:39,559
2025-07-30 23:07:39,518
2025-07-30 23:07:39,524
2025-07-30 23:07:39,583
2025-07-30 23:07:39,557
2025-07-30 23:07:39,542
2025-07-30 23:07:39,606
2025-07-30 23:07:39,590
2025-07-30 23:07:39,559
2025-07-30 23:07:39,596
2025-07-30 23:07:39,599
2025-07-30 23:07:39,557
2025-07-30 23:07:39,602
2025-07-30 23:07:39,609
2025-07-30 23:07:39,562
2025-07-30 23:07:39,590
2025-07-30 23:07:39,634
2025-07-30 23:07:39,597
2025-07-30 23:07:39,603
2025-07-30 23:07:39,629
2025-07-30 23:07:39,598
2025-07-30 23:07:39,602
2025-07-30 23:07:39,645
2025-07-30 23:07:39,613
2025-07-30 23:07:39,585
2025-07-30 23:07:39,639
2025-07-30 23:07:39,648
2025-07-30 23:07:39,594
2025-07-30 23:07:39,635
2025-07-30 23:07:39,648
2025-07-30 23:07:39,612
2025-07-30 23:07:39,628
2025-07-30 23:07:39,658
2025-07-30 23:07:39,609
2025-07-30 23:07:39,600
2025-07-30 23:07:39,648
2025-07-30 23:07:39,614
2025-07-30 23:07:39,606
2025-07-30 23:07:39,645
2025-07-30 23:07:39,604
2025-07-30 23:07:39,556
2025-07-30 23:07:39,595
2025-07-30 23:07:39,602
2025-07-30 23:07:39,577
2025-07-30 23:07:39,609
2025-07-30 23:07:39,621
2025-07-30 23:07:39,573
2025-07-30 23:07:39,598
2025-07-30 23:07:39,641
2025-07-30 23:07:39,609
2025-07-30 23:07:39,621
2025-07-30 23:07:39,643
2025-07-30 23:07:39,587
2025-07-30 23:07:39,566
2025-07-30 23:07:39,605
2025-07-30 23:07:39,591
2025-07-30 23:07:39,546
2025-07-30 23:07:39,594
2025-07-30 23:07:39,576
2025-07-30 23:07:39,530
2025-07-30 23:07:39,575
2025-07-30 23:07:39,591
2025-07-30 23:07:39,533
2025-07-30 23:07:39,540
2025-07-30 23:07:39,577
2025-07-30 23:07:39,547
2025-07-30 23:07:39,543
2025-07-30 23:07:39,577
2025-07-30 23:07:39,523
2025-07-30 23:07:39,488
2025-07-30 23:07:39,549
2025-07-30 23:07:39,534
2025-07-30 23:07:39,501
2025-07-30 23:07:39,553
2025-07-30 23:07:39,552
2025-07-30 23:07:39,495
2025-07-30 23:07:39,528
2025-07-30 23:07:39,545
2025-07-30 23:07:39,509
2025-07-30 23:07:39,538
2025-07-30 23:07:39,553
2025-07-30 23:07:39,476
2025-07-30 23:07:39,486
2025-07-30 23:07:39,533
2025-07-30 23:07:39,508
2025-07-30 23:07:39,484
2025-07-30 23:07:39,527
2025-07-30 23:07:39,502
2025-07-30 23:07:39,478
2025-07-30 23:07:39,529
2025-07-30 23:07:39,517
2025-07-30 23:07:39,478
2025-07-30 23:07:39,511
2025-07-30 23:07:39,544
2025-07-30 23:07:39,485
2025-07-30 23:07:39,485
2025-07-30 23:07:39,520
2025-07-30 23:07:39,475
2025-07-30 23:07:39,483
2025-07-30 23:07:39,530
2025-07-30 23:07:39,491
2025-07-30 23:07:39,472
2025-07-30 23:07:39,515
2025-07-30 23:07:39,516
2025-07-30 23:07:39,482
2025-07-30 23:07:39,506
2025-07-30 23:07:39,499
2025-07-30 23:07:39,467
2025-07-30 23:07:39,498
2025-07-30 23:07:39,526
2025-07-30 23:07:39,490
2025-07-30 23:07:39,482
2025-07-30 23:07:39,511
2025-07-30 23:07:39,500
2025-07-30 23:07:39,468
2025-07-30 23:07:39,494
2025-07-30 23:07:39,491
2025-07-30 23:07:39,486
2025-07-30 23:07:39,513
2025-07-30 23:07:39,503
2025-07-30 23:07:40,484
2025-07-30 23:07:40,529
2025-07-30 23:07:40,536
2025-07-30 23:07:40,505
2025-07-30 23:07:40,527
2025-07-30 23:07:40,542
2025-07-30 23:07:40,503
2025-07-30 23:07:40,536
2025-07-30 23:07:40,542
2025-07-30 23:07:40,512
2025-07-30 23:07:40,515
2025-07-30 23:07:40,555
2025-07-30 23:07:40,525
2025-07-30 23:07:40,499
2025-07-30 23:07:40,548
2025-07-30 23:07:40,541
2025-07-30 23:07:40,493
2025-07-30 23:07:40,530
2025-07-30 23:07:40,537
2025-07-30 23:07:40,507
2025-07-30 23:07:40,562
2025-07-30 23:07:40,565
2025-07-30 23:07:40,491
2025-07-30 23:07:40,502
2025-07-30 23:07:40,529
2025-07-30 23:07:40,497
2025-07-30 23:07:40,491
2025-07-30 23:07:40,530
2025-07-30 23:07:40,503
2025-07-30 23:07:40,480
2025-07-30 23:07:40,502
2025-07-30 23:07:40,491
2025-07-30 23:07:40,473
2025-07-30 23:07:40,513
2025-07-30 23:07:40,500
2025-07-30 23:07:40,446
2025-07-30 23:07:40,477
2025-07-30 23:07:40,511
2025-07-30 23:07:40,462
2025-07-30 23:07:40,478
2025-07-30 23:07:40,517
2025-07-30 23:07:40,479
2025-07-30 23:07:40,468
2025-07-30 23:07:40,499
2025-07-30 23:07:40,469
2025-07-30 23:07:40,456
2025-07-30 23:07:40,491
2025-07-30 23:07:40,474
2025-07-30 23:07:40,451
2025-07-30 23:07:40,488
2025-07-30 23:07:40,507
2025-07-30 23:07:40,463
2025-07-30 23:07:40,475
2025-07-30 23:07:40,503
2025-07-30 23:07:40,461
2025-07-30 23:07:40,469
2025-07-30 23:07:40,506
2025-07-30 23:07:40,467
2025-07-30 23:07:40,441
2025-07-30 23:07:40,488
2025-07-30 23:07:40,482
2025-07-30 23:07:40,447
2025-07-30 23:07:40,484
2025-07-30 23:07:40,481
2025-07-30 23:07:40,454
2025-07-30 23:07:40,471
2025-07-30 23:07:40,480
2025-07-30 23:07:40,440
2025-07-30 23:07:40,453
2025-07-30 23:07:40,478
2025-07-30 23:07:40,433
2025-07-30 23:07:40,440
2025-07-30 23:07:40,476
2025-07-30 23:07:40,440
2025-07-30 23:07:40,425
2025-07-30 23:07:40,468
2025-07-30 23:07:40,448
2025-07-30 23:07:40,440
2025-07-30 23:07:40,483
2025-07-30 23:07:40,473
2025-07-30 23:07:40,414
2025-07-30 23:07:40,451
2025-07-30 23:07:40,471
2025-07-30 23:07:40,430
2025-07-30 23:07:40,433
2025-07-30 23:07:40,447
2025-07-30 23:07:40,416
2025-07-30 23:07:40,419
2025-07-30 23:07:40,444
2025-07-30 23:07:40,400
2025-07-30 23:07:40,395
2025-07-30 23:07:40,441
2025-07-30 23:07:40,422
2025-07-30 23:07:40,394
2025-07-30 23:07:40,428
2025-07-30 23:07:40,415
2025-07-30 23:07:40,376
2025-07-30 23:07:40,399
2025-07-30 23:07:40,414
2025-07-30 23:07:40,368
2025-07-30 23:07:40,387
2025-07-30 23:07:40,427
2025-07-30 23:07:40,382
2025-07-30 23:07:40,388
2025-07-30 23:07:40,437
2025-07-30 23:07:40,410
2025-07-30 23:07:40,401
2025-07-30 23:07:40,450
2025-07-30 23:07:40,404
2025-07-30 23:07:40,383
2025-07-30 23:07:40,405
2025-07-30 23:07:40,411
2025-07-30 23:07:40,386
2025-07-30 23:07:40,420
2025-07-30 23:07:40,435
2025-07-30 23:07:40,391
2025-07-30 23:07:40,417
2025-07-30 23:07:40,443
2025-07-30 23:07:40,411
2025-07-30 23:07:40,404
2025-07-30 23:07:40,454
2025-07-30 23:07:40,442
2025-07-30 23:07:40,386
2025-07-30 23:07:40,437
2025-07-30 23:07:40,430
2025-07-30 23:07:40,402
2025-07-30 23:07:40,469
2025-07-30 23:07:40,453
2025-07-30 23:07:40,411
2025-07-30 23:07:40,430
2025-07-30 23:07:40,462
2025-07-30 23:07:40,414
2025-07-30 23:07:40,426
2025-07-30 23:07:40,456
2025-07-30 23:07:40,428
2025-07-30 23:07:40,428
2025-07-30 23:07:40,465
2025-07-30 23:07:40,428
2025-07-30 23:07:40,401
2025-07-30 23:07:40,479
2025-07-30 23:07:40,456
2025-07-30 23:07:40,415
2025-07-30 23:07:40,448
2025-07-30 23:07:40,456
2025-07-30 23:07:40,419
2025-07-30 23:07:40,453
2025-07-30 23:07:40,468
2025-07-30 23:07:40,432
2025-07-30 23:07:40,440
2025-07-30 23:07:40,476
2025-07-30 23:07:40,442
2025-07-30 23:07:40,452
2025-07-30 23:07:40,495
2025-07-30 23:07:40,469
2025-07-30 23:07:40,434
2025-07-30 23:07:40,481
2025-07-30 23:07:40,471
2025-07-30 23:07:40,437
2025-07-30 23:07:40,481
2025-07-30 23:07:40,495
2025-07-30 23:07:40,466
2025-07-30 23:07:40,473
2025-07-30 23:07:40,486
2025-07-30 23:07:40,442
2025-07-30 23:07:40,456
2025-07-30 23:07:40,509
2025-07-30 23:07:40,469
2025-07-30 23:07:40,455
2025-07-30 23:07:40,504
2025-07-30 23:07:40,463
2025-07-30 23:07:40,426
2025-07-30 23:07:40,488
2025-07-30 23:07:40,478
2025-07-30 23:07:40,438
2025-07-30 23:07:40,476
2025-07-30 23:07:40,492
2025-07-30 23:07:40,436
2025-07-30 23:07:40,458
2025-07-30 23:07:40,502
2025-07-30 23:07:40,449
2025-07-30 23:07:40,460
2025-07-30 23:07:40,482
2025-07-30 23:07:40,436
2025-07-30 23:07:40,439
2025-07-30 23:07:40,492
2025-07-30 23:07:40,463
2025-07-30 23:07:40,445
2025-07-30 23:07:40,466
2025-07-30 23:07:40,463
2025-07-30 23:07:40,440
2025-07-30 23:07:40,482
2025-07-30 23:07:40,480
2025-07-30 23:07:40,436
2025-07-30 23:07:41,470
2025-07-30 23:07:41,493
2025-07-30 23:07:41,444
2025-07-30 23:07:41,457
2025-07-30 23:07:41,492
2025-07-30 23:07:41,455
2025-07-30 23:07:41,439
2025-07-30 23:07:41,487
2025-07-30 23:07:41,482
2025-07-30 23:07:41,434
2025-07-30 23:07:41,470
2025-07-30 23:07:41,468
2025-07-30 23:07:41,439
2025-07-30 23:07:41,478
2025-07-30 23:07:41,477
2025-07-30 23:07:41,431
2025-07-30 23:07:41,468
2025-07-30 23:07:41,506
2025-07-30 23:07:41,453
2025-07-30 23:07:41,473
2025-07-30 23:07:41,488
2025-07-30 23:07:41,471
2025-07-30 23:07:41,444
2025-07-30 23:07:41,497
2025-07-30 23:07:41,482
2025-07-30 23:07:41,462
2025-07-30 23:07:41,504
2025-07-30 23:07:41,501
2025-07-30 23:07:41,470
2025-07-30 23:07:41,506
2025-07-30 23:07:41,513
2025-07-30 23:07:41,476
2025-07-30 23:07:41,495
2025-07-30 23:07:41,526
2025-07-30 23:07:41,471
2025-07-30 23:07:41,477
2025-07-30 23:07:41,515
2025-07-30 23:07:41,477
2025-07-30 23:07:41,493
2025-07-30 23:07:41,513
2025-07-30 23:07:41,492
2025-07-30 23:07:41,470
2025-07-30 23:07:41,513
2025-07-30 23:07:41,512
2025-07-30 23:07:41,467
2025-07-30 23:07:41,509
2025-07-30 23:07:41,526
2025-07-30 23:07:41,471
2025-07-30 23:07:41,493
2025-07-30 23:07:41,516
2025-07-30 23:07:41,485
2025-07-30 23:07:41,491
2025-07-30 23:07:41,517
2025-07-30 23:07:41,488
2025-07-30 23:07:41,475
2025-07-30 23:07:41,532
2025-07-30 23:07:41,496
2025-07-30 23:07:41,479
2025-07-30 23:07:41,513
2025-07-30 23:07:41,502
2025-07-30 23:07:41,480
2025-07-30 23:07:41,517
2025-07-30 23:07:41,524
2025-07-30 23:07:41,493
2025-07-30 23:07:41,512
2025-07-30 23:07:41,547
2025-07-30 23:07:41,512
2025-07-30 23:07:41,515
2025-07-30 23:07:41,551
2025-07-30 23:07:41,520
2025-07-30 23:07:41,506
2025-07-30 23:07:41,542
2025-07-30 23:07:41,529
2025-07-30 23:07:41,496
2025-07-30 23:07:41,541
2025-07-30 23:07:41,541
2025-07-30 23:07:41,518
2025-07-30 23:07:41,548
2025-07-30 23:07:41,545
2025-07-30 23:07:41,504
2025-07-30 23:07:41,528
2025-07-30 23:07:41,564
2025-07-30 23:07:41,521
2025-07-30 23:07:41,519
2025-07-30 23:07:41,558
2025-07-30 23:07:41,529
2025-07-30 23:07:41,516
2025-07-30 23:07:41,553
2025-07-30 23:07:41,536
2025-07-30 23:07:41,523
2025-07-30 23:07:41,554
2025-07-30 23:07:41,546
2025-07-30 23:07:41,513
2025-07-30 23:07:41,542
2025-07-30 23:07:41,557
2025-07-30 23:07:41,508
2025-07-30 23:07:41,520
2025-07-30 23:07:41,568
2025-07-30 23:07:41,531
2025-07-30 23:07:41,520
2025-07-30 23:07:41,549
2025-07-30 23:07:41,527
2025-07-30 23:07:41,516
2025-07-30 23:07:41,566
2025-07-30 23:07:41,543
2025-07-30 23:07:41,519
2025-07-30 23:07:41,557
2025-07-30 23:07:41,568
2025-07-30 23:07:41,536
2025-07-30 23:07:41,542
2025-07-30 23:07:41,546
2025-07-30 23:07:41,504
2025-07-30 23:07:41,536
2025-07-30 23:07:41,559
2025-07-30 23:07:41,526
2025-07-30 23:07:41,533
2025-07-30 23:07:41,569
2025-07-30 23:07:41,539
2025-07-30 23:07:41,538
2025-07-30 23:07:41,558
2025-07-30 23:07:41,553
2025-07-30 23:07:41,524
2025-07-30 23:07:41,576
2025-07-30 23:07:41,588
2025-07-30 23:07:41,540
2025-07-30 23:07:41,565
2025-07-30 23:07:41,591
2025-07-30 23:07:41,552
2025-07-30 23:07:41,576
2025-07-30 23:07:41,581
2025-07-30 23:07:41,542
2025-07-30 23:07:41,542
2025-07-30 23:07:41,599
2025-07-30 23:07:41,569
2025-07-30 23:07:41,541
2025-07-30 23:07:41,587
2025-07-30 23:07:41,587
2025-07-30 23:07:41,551
2025-07-30 23:07:41,564
2025-07-30 23:07:41,563
2025-07-30 23:07:41,527
2025-07-30 23:07:41,559
2025-07-30 23:07:41,583
2025-07-30 23:07:41,525
2025-07-30 23:07:41,530
2025-07-30 23:07:41,561
2025-07-30 23:07:41,534
2025-07-30 23:07:41,538
2025-07-30 23:07:41,570
2025-07-30 23:07:41,544
2025-07-30 23:07:41,526
2025-07-30 23:07:41,563
2025-07-30 23:07:41,552
2025-07-30 23:07:41,519
2025-07-30 23:07:41,541
2025-07-30 23:07:41,543
2025-07-30 23:07:41,495
2025-07-30 23:07:41,523
2025-07-30 23:07:41,554
2025-07-30 23:07:41,520
2025-07-30 23:07:41,542
2025-07-30 23:07:41,569
2025-07-30 23:07:41,536
2025-07-30 23:07:41,536
2025-07-30 23:07:41,585
2025-07-30 23:07:41,572
2025-07-30 23:07:41,542
2025-07-30 23:07:41,572
2025-07-30 23:07:41,565
2025-07-30 23:07:41,541
2025-07-30 23:07:41,578
2025-07-30 23:07:41,575
2025-07-30 23:07:41,517
2025-07-30 23:07:41,558
2025-07-30 23:07:41,589
2025-07-30 23:07:41,528
2025-07-30 23:07:41,524
2025-07-30 23:07:41,546
2025-07-30 23:07:41,524
2025-07-30 23:07:41,521
2025-07-30 23:07:41,560
2025-07-30 23:07:41,521
2025-07-30 23:07:41,508
2025-07-30 23:07:41,551
2025-07-30 23:07:41,551
2025-07-30 23:07:41,520
2025-07-30 23:07:41,514
2025-07-30 23:07:41,524
2025-07-30 23:07:41,495
2025-07-30 23:07:41,529
2025-07-30 23:07:41,543
2025-07-30 23:07:42,490
2025-07-30 23:07:42,495
2025-07-30 23:07:42,537
2025-07-30 23:07:42,503
2025-07-30 23:07:42,498
2025-07-30 23:07:42,534
2025-07-30 23:07:42,504
2025-07-30 23:07:42,492
2025-07-30 23:07:42,531
2025-07-30 23:07:42,502
2025-07-30 23:07:42,494
2025-07-30 23:07:42,525
2025-07-30 23:07:42,532
2025-07-30 23:07:42,489
2025-07-30 23:07:42,514
2025-07-30 23:07:42,532
2025-07-30 23:07:42,509
2025-07-30 23:07:42,519
2025-07-30 23:07:42,545
2025-07-30 23:07:42,487
2025-07-30 23:07:42,499
2025-07-30 23:07:42,536
2025-07-30 23:07:42,508
2025-07-30 23:07:42,478
2025-07-30 23:07:42,529
2025-07-30 23:07:42,511
2025-07-30 23:07:42,475
2025-07-30 23:07:42,521
2025-07-30 23:07:42,530
2025-07-30 23:07:42,478
2025-07-30 23:07:42,512
2025-07-30 23:07:42,531
2025-07-30 23:07:42,488
2025-07-30 23:07:42,497
2025-07-30 23:07:42,526
2025-07-30 23:07:42,486
2025-07-30 23:07:42,473
2025-07-30 23:07:42,525
2025-07-30 23:07:42,491
2025-07-30 23:07:42,469
2025-07-30 23:07:42,495
2025-07-30 23:07:42,490
2025-07-30 23:07:42,459
2025-07-30 23:07:42,486
2025-07-30 23:07:42,489
2025-07-30 23:07:42,462
2025-07-30 23:07:42,475
2025-07-30 23:07:42,509
2025-07-30 23:07:42,457
2025-07-30 23:07:42,453
2025-07-30 23:07:42,487
2025-07-30 23:07:42,463
2025-07-30 23:07:42,458
2025-07-30 23:07:42,498
2025-07-30 23:07:42,466
2025-07-30 23:07:42,447
2025-07-30 23:07:42,495
2025-07-30 23:07:42,470
2025-07-30 23:07:42,451
2025-07-30 23:07:42,484
2025-07-30 23:07:42,489
2025-07-30 23:07:42,443
2025-07-30 23:07:42,467
2025-07-30 23:07:42,493
2025-07-30 23:07:42,445
2025-07-30 23:07:42,443
2025-07-30 23:07:42,487
2025-07-30 23:07:42,470
2025-07-30 23:07:42,452
2025-07-30 23:07:42,482
2025-07-30 23:07:42,479
2025-07-30 23:07:42,443
2025-07-30 23:07:42,470
2025-07-30 23:07:42,464
2025-07-30 23:07:42,441
2025-07-30 23:07:42,476
2025-07-30 23:07:42,479
2025-07-30 23:07:42,442
2025-07-30 23:07:42,453
2025-07-30 23:07:42,498
2025-07-30 23:07:42,462
2025-07-30 23:07:42,447
2025-07-30 23:07:42,482
2025-07-30 23:07:42,457
2025-07-30 23:07:42,441
2025-07-30 23:07:42,472
2025-07-30 23:07:42,463
2025-07-30 23:07:42,448
2025-07-30 23:07:42,483
2025-07-30 23:07:42,476
2025-07-30 23:07:42,443
2025-07-30 23:07:42,474
2025-07-30 23:07:42,486
2025-07-30 23:07:42,452
2025-07-30 23:07:42,461
2025-07-30 23:07:42,463
2025-07-30 23:07:42,434
2025-07-30 23:07:42,446
2025-07-30 23:07:42,485
2025-07-30 23:07:42,450
2025-07-30 23:07:42,436
2025-07-30 23:07:42,489
2025-07-30 23:07:42,473
2025-07-30 23:07:42,435
2025-07-30 23:07:42,467
2025-07-30 23:07:42,483
2025-07-30 23:07:42,473
2025-07-30 23:07:42,465
2025-07-30 23:07:42,470
2025-07-30 23:07:42,431
2025-07-30 23:07:42,452
2025-07-30 23:07:42,486
2025-07-30 23:07:42,429
2025-07-30 23:07:42,431
2025-07-30 23:07:42,481
2025-07-30 23:07:42,457
2025-07-30 23:07:42,447
2025-07-30 23:07:42,500
2025-07-30 23:07:42,478
2025-07-30 23:07:42,448
2025-07-30 23:07:42,492
2025-07-30 23:07:42,495
2025-07-30 23:07:42,438
2025-07-30 23:07:42,464
2025-07-30 23:07:42,500
2025-07-30 23:07:42,451
2025-07-30 23:07:42,456
2025-07-30 23:07:42,485
2025-07-30 23:07:42,453
2025-07-30 23:07:42,459
2025-07-30 23:07:42,507
2025-07-30 23:07:42,452
2025-07-30 23:07:42,441
2025-07-30 23:07:42,489
2025-07-30 23:07:42,472
2025-07-30 23:07:42,445
2025-07-30 23:07:42,497
2025-07-30 23:07:42,483
2025-07-30 23:07:42,432
2025-07-30 23:07:42,477
2025-07-30 23:07:42,491
2025-07-30 23:07:42,450
2025-07-30 23:07:42,470
2025-07-30 23:07:42,499
2025-07-30 23:07:42,446
2025-07-30 23:07:42,440
2025-07-30 23:07:42,500
2025-07-30 23:07:42,483
2025-07-30 23:07:42,445
2025-07-30 23:07:42,494
2025-07-30 23:07:42,489
2025-07-30 23:07:42,454
2025-07-30 23:07:42,498
2025-07-30 23:07:42,494
2025-07-30 23:07:42,448
2025-07-30 23:07:42,474
2025-07-30 23:07:42,506
2025-07-30 23:07:42,458
2025-07-30 23:07:42,477
2025-07-30 23:07:42,511
2025-07-30 23:07:42,470
2025-07-30 23:07:42,463
2025-07-30 23:07:42,512
2025-07-30 23:07:42,512
2025-07-30 23:07:42,470
2025-07-30 23:07:42,516
2025-07-30 23:07:42,497
2025-07-30 23:07:42,477
2025-07-30 23:07:42,516
2025-07-30 23:07:42,521
2025-07-30 23:07:42,478
2025-07-30 23:07:42,513
2025-07-30 23:07:42,530
2025-07-30 23:07:42,476
2025-07-30 23:07:42,503
2025-07-30 23:07:42,541
2025-07-30 23:07:42,507
2025-07-30 23:07:42,505
2025-07-30 23:07:42,531
2025-07-30 23:07:42,495
2025-07-30 23:07:42,477
2025-07-30 23:07:42,525
2025-07-30 23:07:42,510
2025-07-30 23:07:42,471
2025-07-30 23:07:42,511
2025-07-30 23:07:42,517
2025-07-30 23:07:42,474
2025-07-30 23:07:42,491
2025-07-30 23:07:42,512
2025-07-30 23:07:42,462
2025-07-30 23:07:42,469
2025-07-30 23:07:42,501
2025-07-30 23:07:42,460
2025-07-30 23:07:43,470
2025-07-30 23:07:43,517
2025-07-30 23:07:43,483
2025-07-30 23:07:43,459
2025-07-30 23:07:43,528
2025-07-30 23:07:43,507
2025-07-30 23:07:43,461
2025-07-30 23:07:43,479
2025-07-30 23:07:43,496
2025-07-30 23:07:43,456
2025-07-30 23:07:43,484
2025-07-30 23:07:43,499
2025-07-30 23:07:43,466
2025-07-30 23:07:43,481
2025-07-30 23:07:43,512
2025-07-30 23:07:43,468
2025-07-30 23:07:43,468
2025-07-30 23:07:43,509
2025-07-30 23:07:43,480
2025-07-30 23:07:43,466
2025-07-30 23:07:43,516
2025-07-30 23:07:43,498
2025-07-30 23:07:43,440
2025-07-30 23:07:43,488
2025-07-30 23:07:43,501
2025-07-30 23:07:43,454
2025-07-30 23:07:43,471
2025-07-30 23:07:43,496
2025-07-30 23:07:43,457
2025-07-30 23:07:43,476
2025-07-30 23:07:43,508
2025-07-30 23:07:43,474
2025-07-30 23:07:43,465
2025-07-30 23:07:43,522
2025-07-30 23:07:43,493
2025-07-30 23:07:43,457
2025-07-30 23:07:43,489
2025-07-30 23:07:43,497
2025-07-30 23:07:43,457
2025-07-30 23:07:43,492
2025-07-30 23:07:43,504
2025-07-30 23:07:43,453
2025-07-30 23:07:43,484
2025-07-30 23:07:43,530
2025-07-30 23:07:43,480
2025-07-30 23:07:43,490
2025-07-30 23:07:43,522
2025-07-30 23:07:43,491
2025-07-30 23:07:43,484
2025-07-30 23:07:43,516
2025-07-30 23:07:43,501
2025-07-30 23:07:43,496
2025-07-30 23:07:43,535
2025-07-30 23:07:43,524
2025-07-30 23:07:43,474
2025-07-30 23:07:43,523
2025-07-30 23:07:43,544
2025-07-30 23:07:43,511
2025-07-30 23:07:43,525
2025-07-30 23:07:43,554
2025-07-30 23:07:43,521
2025-07-30 23:07:43,521
2025-07-30 23:07:43,562
2025-07-30 23:07:43,530
2025-07-30 23:07:43,511
2025-07-30 23:07:43,567
2025-07-30 23:07:43,536
2025-07-30 23:07:43,500
2025-07-30 23:07:43,548
2025-07-30 23:07:43,539
2025-07-30 23:07:43,503
2025-07-30 23:07:43,535
2025-07-30 23:07:43,543
2025-07-30 23:07:43,500
2025-07-30 23:07:43,525
2025-07-30 23:07:43,555
2025-07-30 23:07:43,515
2025-07-30 23:07:43,521
2025-07-30 23:07:43,559
2025-07-30 23:07:43,526
2025-07-30 23:07:43,524
2025-07-30 23:07:43,566
2025-07-30 23:07:43,535
2025-07-30 23:07:43,496
2025-07-30 23:07:43,536
2025-07-30 23:07:43,531
2025-07-30 23:07:43,504
2025-07-30 23:07:43,550
2025-07-30 23:07:43,546
2025-07-30 23:07:43,497
2025-07-30 23:07:43,521
2025-07-30 23:07:43,545
2025-07-30 23:07:43,516
2025-07-30 23:07:43,526
2025-07-30 23:07:43,564
2025-07-30 23:07:43,543
2025-07-30 23:07:43,520
2025-07-30 23:07:43,561
2025-07-30 23:07:43,553
2025-07-30 23:07:43,510
2025-07-30 23:07:43,548
2025-07-30 23:07:43,539
2025-07-30 23:07:43,504
2025-07-30 23:07:43,540
2025-07-30 23:07:43,539
2025-07-30 23:07:43,511
2025-07-30 23:07:43,525
2025-07-30 23:07:43,546
2025-07-30 23:07:43,515
2025-07-30 23:07:43,520
2025-07-30 23:07:43,560
2025-07-30 23:07:43,521
2025-07-30 23:07:43,513
2025-07-30 23:07:43,558
2025-07-30 23:07:43,561
2025-07-30 23:07:43,521
2025-07-30 23:07:43,550
2025-07-30 23:07:43,549
2025-07-30 23:07:43,518
2025-07-30 23:07:43,554
2025-07-30 23:07:43,559
2025-07-30 23:07:43,515
2025-07-30 23:07:43,529
2025-07-30 23:07:43,564
2025-07-30 23:07:43,517
2025-07-30 23:07:43,518
2025-07-30 23:07:43,562
2025-07-30 23:07:43,542
2025-07-30 23:07:43,518
2025-07-30 23:07:43,559
2025-07-30 23:07:43,536
2025-07-30 23:07:43,520
2025-07-30 23:07:43,544
2025-07-30 23:07:43,552
2025-07-30 23:07:43,516
2025-07-30 23:07:43,544
2025-07-30 23:07:43,563
2025-07-30 23:07:43,515
2025-07-30 23:07:43,537
2025-07-30 23:07:43,568
2025-07-30 23:07:43,521
2025-07-30 23:07:43,525
2025-07-30 23:07:43,572
2025-07-30 23:07:43,550
2025-07-30 23:07:43,507
2025-07-30 23:07:43,550
2025-07-30 23:07:43,539
2025-07-30 23:07:43,510
2025-07-30 23:07:43,548
2025-07-30 23:07:43,549
2025-07-30 23:07:43,512
2025-07-30 23:07:43,537
2025-07-30 23:07:43,550
2025-07-30 23:07:43,507
2025-07-30 23:07:43,526
2025-07-30 23:07:43,570
2025-07-30 23:07:43,516
2025-07-30 23:07:43,520
2025-07-30 23:07:43,565
2025-07-30 23:07:43,535
2025-07-30 23:07:43,516
2025-07-30 23:07:43,561
2025-07-30 23:07:43,565
2025-07-30 23:07:43,552
2025-07-30 23:07:43,578
2025-07-30 23:07:43,592
2025-07-30 23:07:43,560
2025-07-30 23:07:43,586
2025-07-30 23:07:43,603
2025-07-30 23:07:43,570
2025-07-30 23:07:43,587
2025-07-30 23:07:43,615
2025-07-30 23:07:43,582
2025-07-30 23:07:43,577
2025-07-30 23:07:43,628
2025-07-30 23:07:43,604
2025-07-30 23:07:43,585
2025-07-30 23:07:43,608
2025-07-30 23:07:43,602
2025-07-30 23:07:43,580
2025-07-30 23:07:43,615
2025-07-30 23:07:43,628
2025-07-30 23:07:43,585
2025-07-30 23:07:43,614
2025-07-30 23:07:43,632
2025-07-30 23:07:43,589
2025-07-30 23:07:43,597
2025-07-30 23:07:43,637
2025-07-30 23:07:43,609
2025-07-30 23:07:43,595
2025-07-30 23:07:43,622
2025-07-30 23:07:43,601
2025-07-30 23:07:43,591
2025-07-30 23:07:43,622
2025-07-30 23:07:44,604
2025-07-30 23:07:44,568
2025-07-30 23:07:44,606
2025-07-30 23:07:44,619
2025-07-30 23:07:44,566
2025-07-30 23:07:44,601
2025-07-30 23:07:44,634
2025-07-30 23:07:44,570
2025-07-30 23:07:44,576
2025-07-30 23:07:44,606
2025-07-30 23:07:44,573
2025-07-30 23:07:44,567
2025-07-30 23:07:44,598
2025-07-30 23:07:44,571
2025-07-30 23:07:44,558
2025-07-30 23:07:44,600
2025-07-30 23:07:44,591
2025-07-30 23:07:44,561
2025-07-30 23:07:44,589
2025-07-30 23:07:44,591
2025-07-30 23:07:44,537
2025-07-30 23:07:44,572
2025-07-30 23:07:44,596
2025-07-30 23:07:44,549
2025-07-30 23:07:44,557
2025-07-30 23:07:44,602
2025-07-30 23:07:44,560
2025-07-30 23:07:44,554
2025-07-30 23:07:44,597
2025-07-30 23:07:44,556
2025-07-30 23:07:44,527
2025-07-30 23:07:44,573
2025-07-30 23:07:44,573
2025-07-30 23:07:44,540
2025-07-30 23:07:44,582
2025-07-30 23:07:44,594
2025-07-30 23:07:44,543
2025-07-30 23:07:44,573
2025-07-30 23:07:44,605
2025-07-30 23:07:44,539
2025-07-30 23:07:44,550
2025-07-30 23:07:44,587
2025-07-30 23:07:44,557
2025-07-30 23:07:44,541
2025-07-30 23:07:44,566
2025-07-30 23:07:44,558
2025-07-30 23:07:44,542
2025-07-30 23:07:44,578
2025-07-30 23:07:44,554
2025-07-30 23:07:44,522
2025-07-30 23:07:44,553
2025-07-30 23:07:44,548
2025-07-30 23:07:44,524
2025-07-30 23:07:44,552
2025-07-30 23:07:44,562
2025-07-30 23:07:44,528
2025-07-30 23:07:44,542
2025-07-30 23:07:44,571
2025-07-30 23:07:44,513
2025-07-30 23:07:44,492
2025-07-30 23:07:44,538
2025-07-30 23:07:44,523
2025-07-30 23:07:44,500
2025-07-30 23:07:44,541
2025-07-30 23:07:44,530
2025-07-30 23:07:44,497
2025-07-30 23:07:44,528
2025-07-30 23:07:44,544
2025-07-30 23:07:44,509
2025-07-30 23:07:44,517
2025-07-30 23:07:44,549
2025-07-30 23:07:44,489
2025-07-30 23:07:44,489
2025-07-30 23:07:44,529
2025-07-30 23:07:44,494
2025-07-30 23:07:44,482
2025-07-30 23:07:44,526
2025-07-30 23:07:44,508
2025-07-30 23:07:44,477
2025-07-30 23:07:44,497
2025-07-30 23:07:44,508
2025-07-30 23:07:44,470
2025-07-30 23:07:44,497
2025-07-30 23:07:44,499
2025-07-30 23:07:44,472
2025-07-30 23:07:44,472
2025-07-30 23:07:44,501
2025-07-30 23:07:44,456
2025-07-30 23:07:44,462
2025-07-30 23:07:44,498
2025-07-30 23:07:44,470
2025-07-30 23:07:44,451
2025-07-30 23:07:44,489
2025-07-30 23:07:44,468
2025-07-30 23:07:44,443
2025-07-30 23:07:44,474
2025-07-30 23:07:44,477
2025-07-30 23:07:44,448
2025-07-30 23:07:44,477
2025-07-30 23:07:44,493
2025-07-30 23:07:44,456
2025-07-30 23:07:44,484
2025-07-30 23:07:44,499
2025-07-30 23:07:44,465
2025-07-30 23:07:44,456
2025-07-30 23:07:44,482
2025-07-30 23:07:44,452
2025-07-30 23:07:44,442
2025-07-30 23:07:44,485
2025-07-30 23:07:44,471
2025-07-30 23:07:44,443
2025-07-30 23:07:44,474
2025-07-30 23:07:44,476
2025-07-30 23:07:44,441
2025-07-30 23:07:44,464
2025-07-30 23:07:44,491
2025-07-30 23:07:44,462
2025-07-30 23:07:44,458
2025-07-30 23:07:44,482
2025-07-30 23:07:44,453
2025-07-30 23:07:44,443
2025-07-30 23:07:44,476
2025-07-30 23:07:44,445
2025-07-30 23:07:44,425
2025-07-30 23:07:44,473
2025-07-30 23:07:44,451
2025-07-30 23:07:44,428
2025-07-30 23:07:44,466
2025-07-30 23:07:44,463
2025-07-30 23:07:44,425
2025-07-30 23:07:44,462
2025-07-30 23:07:44,461
2025-07-30 23:07:44,436
2025-07-30 23:07:44,445
2025-07-30 23:07:44,475
2025-07-30 23:07:44,449
2025-07-30 23:07:44,427
2025-07-30 23:07:44,470
2025-07-30 23:07:44,447
2025-07-30 23:07:44,437
2025-07-30 23:07:44,478
2025-07-30 23:07:44,461
2025-07-30 23:07:44,427
2025-07-30 23:07:44,467
2025-07-30 23:07:44,474
2025-07-30 23:07:44,440
2025-07-30 23:07:44,465
2025-07-30 23:07:44,484
2025-07-30 23:07:44,449
2025-07-30 23:07:44,459
2025-07-30 23:07:44,474
2025-07-30 23:07:44,436
2025-07-30 23:07:44,439
2025-07-30 23:07:44,481
2025-07-30 23:07:44,453
2025-07-30 23:07:44,439
2025-07-30 23:07:44,480
2025-07-30 23:07:44,473
2025-07-30 23:07:44,443
2025-07-30 23:07:44,468
2025-07-30 23:07:44,460
2025-07-30 23:07:44,427
2025-07-30 23:07:44,461
2025-07-30 23:07:44,486
2025-07-30 23:07:44,451
2025-07-30 23:07:44,456
2025-07-30 23:07:44,488
2025-07-30 23:07:44,453
2025-07-30 23:07:44,446
2025-07-30 23:07:44,492
2025-07-30 23:07:44,467
2025-07-30 23:07:44,444
2025-07-30 23:07:44,477
2025-07-30 23:07:44,467
2025-07-30 23:07:44,447
2025-07-30 23:07:44,486
2025-07-30 23:07:44,479
2025-07-30 23:07:44,439
2025-07-30 23:07:44,473
2025-07-30 23:07:44,488
2025-07-30 23:07:44,443
2025-07-30 23:07:44,454
2025-07-30 23:07:44,488
2025-07-30 23:07:44,461
2025-07-30 23:07:44,449
2025-07-30 23:07:44,496
2025-07-30 23:07:44,464
2025-07-30 23:07:44,445
2025-07-30 23:07:44,495
2025-07-30 23:07:44,469
2025-07-30 23:07:45,435
2025-07-30 23:07:45,480
2025-07-30 23:07:45,482
2025-07-30 23:07:45,440
2025-07-30 23:07:45,468
2025-07-30 23:07:45,478
2025-07-30 23:07:45,437
2025-07-30 23:07:45,451
2025-07-30 23:07:45,488
2025-07-30 23:07:45,451
2025-07-30 23:07:45,457
2025-07-30 23:07:45,494
2025-07-30 23:07:45,470
2025-07-30 23:07:45,440
2025-07-30 23:07:45,490
2025-07-30 23:07:45,480
2025-07-30 23:07:45,437
2025-07-30 23:07:45,470
2025-07-30 23:07:45,481
2025-07-30 23:07:45,444
2025-07-30 23:07:45,469
2025-07-30 23:07:45,493
2025-07-30 23:07:45,456
2025-07-30 23:07:45,468
2025-07-30 23:07:45,497
2025-07-30 23:07:45,476
2025-07-30 23:07:45,460
2025-07-30 23:07:45,497
2025-07-30 23:07:45,479
2025-07-30 23:07:45,462
2025-07-30 23:07:45,488
2025-07-30 23:07:45,486
2025-07-30 23:07:45,469
2025-07-30 23:07:45,504
2025-07-30 23:07:45,499
2025-07-30 23:07:45,459
2025-07-30 23:07:45,482
2025-07-30 23:07:45,509
2025-07-30 23:07:45,474
2025-07-30 23:07:45,476
2025-07-30 23:07:45,510
2025-07-30 23:07:45,477
2025-07-30 23:07:45,465
2025-07-30 23:07:45,508
2025-07-30 23:07:45,485
2025-07-30 23:07:45,465
2025-07-30 23:07:45,507
2025-07-30 23:07:45,498
2025-07-30 23:07:45,456
2025-07-30 23:07:45,496
2025-07-30 23:07:45,503
2025-07-30 23:07:45,473
2025-07-30 23:07:45,485
2025-07-30 23:07:45,513
2025-07-30 23:07:45,474
2025-07-30 23:07:45,469
2025-07-30 23:07:45,504
2025-07-30 23:07:45,473
2025-07-30 23:07:45,463
2025-07-30 23:07:45,510
2025-07-30 23:07:45,494
2025-07-30 23:07:45,458
2025-07-30 23:07:45,508
2025-07-30 23:07:45,498
2025-07-30 23:07:45,476
2025-07-30 23:07:45,492
2025-07-30 23:07:45,493
2025-07-30 23:07:45,455
2025-07-30 23:07:45,483
2025-07-30 23:07:45,520
2025-07-30 23:07:45,479
2025-07-30 23:07:45,493
2025-07-30 23:07:45,540
2025-07-30 23:07:45,504
2025-07-30 23:07:45,493
2025-07-30 23:07:45,533
2025-07-30 23:07:45,522
2025-07-30 23:07:45,486
2025-07-30 23:07:45,528
2025-07-30 23:07:45,514
2025-07-30 23:07:45,481
2025-07-30 23:07:45,531
2025-07-30 23:07:45,532
2025-07-30 23:07:45,495
2025-07-30 23:07:45,510
2025-07-30 23:07:45,544
2025-07-30 23:07:45,515
2025-07-30 23:07:45,502
2025-07-30 23:07:45,545
2025-07-30 23:07:45,510
2025-07-30 23:07:45,505
2025-07-30 23:07:45,551
2025-07-30 23:07:45,529
2025-07-30 23:07:45,500
2025-07-30 23:07:45,537
2025-07-30 23:07:45,539
2025-07-30 23:07:45,499
2025-07-30 23:07:45,546
2025-07-30 23:07:45,539
2025-07-30 23:07:45,497
2025-07-30 23:07:45,503
2025-07-30 23:07:45,534
2025-07-30 23:07:45,501
2025-07-30 23:07:45,495
2025-07-30 23:07:45,530
2025-07-30 23:07:45,498
2025-07-30 23:07:45,491
2025-07-30 23:07:45,533
2025-07-30 23:07:45,524
2025-07-30 23:07:45,496
2025-07-30 23:07:45,545
2025-07-30 23:07:45,535
2025-07-30 23:07:45,495
2025-07-30 23:07:45,524
2025-07-30 23:07:45,542
2025-07-30 23:07:45,521
2025-07-30 23:07:45,530
2025-07-30 23:07:45,549
2025-07-30 23:07:45,498
2025-07-30 23:07:45,495
2025-07-30 23:07:45,546
2025-07-30 23:07:45,526
2025-07-30 23:07:45,497
2025-07-30 23:07:45,534
2025-07-30 23:07:45,522
2025-07-30 23:07:45,484
2025-07-30 23:07:45,529
2025-07-30 23:07:45,541
2025-07-30 23:07:45,492
2025-07-30 23:07:45,539
2025-07-30 23:07:45,533
2025-07-30 23:07:45,490
2025-07-30 23:07:45,498
2025-07-30 23:07:45,541
2025-07-30 23:07:45,502
2025-07-30 23:07:45,495
2025-07-30 23:07:45,533
2025-07-30 23:07:45,494
2025-07-30 23:07:45,492
2025-07-30 23:07:45,535
2025-07-30 23:07:45,518
2025-07-30 23:07:45,482
2025-07-30 23:07:45,522
2025-07-30 23:07:45,515
2025-07-30 23:07:45,485
2025-07-30 23:07:45,519
2025-07-30 23:07:45,542
2025-07-30 23:07:45,506
2025-07-30 23:07:45,506
2025-07-30 23:07:45,536
2025-07-30 23:07:45,492
2025-07-30 23:07:45,492
2025-07-30 23:07:45,529
2025-07-30 23:07:45,512
2025-07-30 23:07:45,486
2025-07-30 23:07:45,525
2025-07-30 23:07:45,515
2025-07-30 23:07:45,487
2025-07-30 23:07:45,524
2025-07-30 23:07:45,539
2025-07-30 23:07:45,503
2025-07-30 23:07:45,516
2025-07-30 23:07:45,528
2025-07-30 23:07:45,485
2025-07-30 23:07:45,493
2025-07-30 23:07:45,516
2025-07-30 23:07:45,487
2025-07-30 23:07:45,490
2025-07-30 23:07:45,526
2025-07-30 23:07:45,502
2025-07-30 23:07:45,479
2025-07-30 23:07:45,520
2025-07-30 23:07:45,518
2025-07-30 23:07:45,487
2025-07-30 23:07:45,526
2025-07-30 23:07:45,517
2025-07-30 23:07:45,474
2025-07-30 23:07:45,514
2025-07-30 23:07:45,515
2025-07-30 23:07:45,484
2025-07-30 23:07:45,488
2025-07-30 23:07:45,519
2025-07-30 23:07:45,493
2025-07-30 23:07:45,492
2025-07-30 23:07:45,534
2025-07-30 23:07:45,499
2025-07-30 23:07:45,478
2025-07-30 23:07:45,522
2025-07-30 23:07:45,530
2025-07-30 23:07:45,484
2025-07-30 23:07:45,504
2025-07-30 23:07:45,521
2025-07-30 23:07:45,476
2025-07-30 23:07:45,508
2025-07-30 23:07:46,525
2025-07-30 23:07:46,483
2025-07-30 23:07:46,490
2025-07-30 23:07:46,532
2025-07-30 23:07:46,486
2025-07-30 23:07:46,483
2025-07-30 23:07:46,533
2025-07-30 23:07:46,506
2025-07-30 23:07:46,469
2025-07-30 23:07:46,511
2025-07-30 23:07:46,503
2025-07-30 23:07:46,453
2025-07-30 23:07:46,503
2025-07-30 23:07:46,513
2025-07-30 23:07:46,477
2025-07-30 23:07:46,495
2025-07-30 23:07:46,516
2025-07-30 23:07:46,473
2025-07-30 23:07:46,482
2025-07-30 23:07:46,521
2025-07-30 23:07:46,481
2025-07-30 23:07:46,472
2025-07-30 23:07:46,516
2025-07-30 23:07:46,488
2025-07-30 23:07:46,460
2025-07-30 23:07:46,514
2025-07-30 23:07:46,513
2025-07-30 23:07:46,478
2025-07-30 23:07:46,496
2025-07-30 23:07:46,488
2025-07-30 23:07:46,459
2025-07-30 23:07:46,502
2025-07-30 23:07:46,509
2025-07-30 23:07:46,461
2025-07-30 23:07:46,478
2025-07-30 23:07:46,516
2025-07-30 23:07:46,481
2025-07-30 23:07:46,468
2025-07-30 23:07:46,504
2025-07-30 23:07:46,484
2025-07-30 23:07:46,462
2025-07-30 23:07:46,507
2025-07-30 23:07:46,515
2025-07-30 23:07:46,477
2025-07-30 23:07:46,493
2025-07-30 23:07:46,497
2025-07-30 23:07:46,459
2025-07-30 23:07:46,481
2025-07-30 23:07:46,512
2025-07-30 23:07:46,483
2025-07-30 23:07:46,479
2025-07-30 23:07:46,510
2025-07-30 23:07:46,481
2025-07-30 23:07:46,461
2025-07-30 23:07:46,521
2025-07-30 23:07:46,492
2025-07-30 23:07:46,453
2025-07-30 23:07:46,502
2025-07-30 23:07:46,499
2025-07-30 23:07:46,462
2025-07-30 23:07:46,480
2025-07-30 23:07:46,502
2025-07-30 23:07:46,466
2025-07-30 23:07:46,485
2025-07-30 23:07:46,501
2025-07-30 23:07:46,462
2025-07-30 23:07:46,475
2025-07-30 23:07:46,502
2025-07-30 23:07:46,472
2025-07-30 23:07:46,448
2025-07-30 23:07:46,485
2025-07-30 23:07:46,487
2025-07-30 23:07:46,465
2025-07-30 23:07:46,501
2025-07-30 23:07:46,496
2025-07-30 23:07:46,452
2025-07-30 23:07:46,480
2025-07-30 23:07:46,501
2025-07-30 23:07:46,452
2025-07-30 23:07:46,483
2025-07-30 23:07:46,511
2025-07-30 23:07:46,463
2025-07-30 23:07:46,479
2025-07-30 23:07:46,501
2025-07-30 23:07:46,468
2025-07-30 23:07:46,452
2025-07-30 23:07:46,501
2025-07-30 23:07:46,510
2025-07-30 23:07:46,457
2025-07-30 23:07:46,476
2025-07-30 23:07:46,487
2025-07-30 23:07:46,459
2025-07-30 23:07:46,482
2025-07-30 23:07:46,487
2025-07-30 23:07:46,451
2025-07-30 23:07:46,475
2025-07-30 23:07:46,503
2025-07-30 23:07:46,456
2025-07-30 23:07:46,468
2025-07-30 23:07:46,517
2025-07-30 23:07:46,477
2025-07-30 23:07:46,466
2025-07-30 23:07:46,510
2025-07-30 23:07:46,476
2025-07-30 23:07:46,437
2025-07-30 23:07:46,486
2025-07-30 23:07:46,491
2025-07-30 23:07:46,459
2025-07-30 23:07:46,489
2025-07-30 23:07:46,503
2025-07-30 23:07:46,457
2025-07-30 23:07:46,476
2025-07-30 23:07:46,506
2025-07-30 23:07:46,451
2025-07-30 23:07:46,478
2025-07-30 23:07:46,518
2025-07-30 23:07:46,479
2025-07-30 23:07:46,454
2025-07-30 23:07:46,495
2025-07-30 23:07:46,488
2025-07-30 23:07:46,453
2025-07-30 23:07:46,490
2025-07-30 23:07:46,481
2025-07-30 23:07:46,450
2025-07-30 23:07:46,490
2025-07-30 23:07:46,501
2025-07-30 23:07:46,465
2025-07-30 23:07:46,478
2025-07-30 23:07:46,508
2025-07-30 23:07:46,466
2025-07-30 23:07:46,479
2025-07-30 23:07:46,521
2025-07-30 23:07:46,477
2025-07-30 23:07:46,458
2025-07-30 23:07:46,496
2025-07-30 23:07:46,494
2025-07-30 23:07:46,452
2025-07-30 23:07:46,485
2025-07-30 23:07:46,493
2025-07-30 23:07:46,454
2025-07-30 23:07:46,482
2025-07-30 23:07:46,505
2025-07-30 23:07:46,457
2025-07-30 23:07:46,467
2025-07-30 23:07:46,501
2025-07-30 23:07:46,477
2025-07-30 23:07:46,466
2025-07-30 23:07:46,495
2025-07-30 23:07:46,479
2025-07-30 23:07:46,470
2025-07-30 23:07:46,501
2025-07-30 23:07:46,484
2025-07-30 23:07:46,454
2025-07-30 23:07:46,492
2025-07-30 23:07:46,494
2025-07-30 23:07:46,464
2025-07-30 23:07:46,483
2025-07-30 23:07:46,507
2025-07-30 23:07:46,453
2025-07-30 23:07:46,472
2025-07-30 23:07:46,502
2025-07-30 23:07:46,482
2025-07-30 23:07:46,491
2025-07-30 23:07:46,494
2025-07-30 23:07:46,471
2025-07-30 23:07:46,448
2025-07-30 23:07:46,507
2025-07-30 23:07:46,501
2025-07-30 23:07:46,457
2025-07-30 23:07:46,497
2025-07-30 23:07:46,505
2025-07-30 23:07:46,457
2025-07-30 23:07:46,478
2025-07-30 23:07:46,510
2025-07-30 23:07:46,487
2025-07-30 23:07:46,482
2025-07-30 23:07:46,501
2025-07-30 23:07:46,463
2025-07-30 23:07:46,481
2025-07-30 23:07:46,515
2025-07-30 23:07:46,481
2025-07-30 23:07:46,459
2025-07-30 23:07:46,510
2025-07-30 23:07:46,504
2025-07-30 23:07:46,466
2025-07-30 23:07:46,507
2025-07-30 23:07:46,511
2025-07-30 23:07:46,458
2025-07-30 23:07:46,485
2025-07-30 23:07:46,519
2025-07-30 23:07:46,498
2025-07-30 23:07:47,485
2025-07-30 23:07:47,508
2025-07-30 23:07:47,479
2025-07-30 23:07:47,473
2025-07-30 23:07:47,505
2025-07-30 23:07:47,482
2025-07-30 23:07:47,464
2025-07-30 23:07:47,503
2025-07-30 23:07:47,497
2025-07-30 23:07:47,475
2025-07-30 23:07:47,502
2025-07-30 23:07:47,508
2025-07-30 23:07:47,461
2025-07-30 23:07:47,472
2025-07-30 23:07:47,513
2025-07-30 23:07:47,468
2025-07-30 23:07:47,485
2025-07-30 23:07:47,512
2025-07-30 23:07:47,480
2025-07-30 23:07:47,475
2025-07-30 23:07:47,513
2025-07-30 23:07:47,487
2025-07-30 23:07:47,463
2025-07-30 23:07:47,500
2025-07-30 23:07:47,497
2025-07-30 23:07:47,466
2025-07-30 23:07:47,507
2025-07-30 23:07:47,510
2025-07-30 23:07:47,463
2025-07-30 23:07:47,497
2025-07-30 23:07:47,521
2025-07-30 23:07:47,464
2025-07-30 23:07:47,465
2025-07-30 23:07:47,511
2025-07-30 23:07:47,491
2025-07-30 23:07:47,473
2025-07-30 23:07:47,514
2025-07-30 23:07:47,488
2025-07-30 23:07:47,469
2025-07-30 23:07:47,521
2025-07-30 23:07:47,518
2025-07-30 23:07:47,476
2025-07-30 23:07:47,493
2025-07-30 23:07:47,509
2025-07-30 23:07:47,474
2025-07-30 23:07:47,495
2025-07-30 23:07:47,538
2025-07-30 23:07:47,487
2025-07-30 23:07:47,473
2025-07-30 23:07:47,520
2025-07-30 23:07:47,479
2025-07-30 23:07:47,490
2025-07-30 23:07:47,520
2025-07-30 23:07:47,504
2025-07-30 23:07:47,457
2025-07-30 23:07:47,503
2025-07-30 23:07:47,511
2025-07-30 23:07:47,477
2025-07-30 23:07:47,505
2025-07-30 23:07:47,524
2025-07-30 23:07:47,482
2025-07-30 23:07:47,493
2025-07-30 23:07:47,513
2025-07-30 23:07:47,476
2025-07-30 23:07:47,491
2025-07-30 23:07:47,531
2025-07-30 23:07:47,480
2025-07-30 23:07:47,466
2025-07-30 23:07:47,512
2025-07-30 23:07:47,507
2025-07-30 23:07:47,478
2025-07-30 23:07:47,518
2025-07-30 23:07:47,513
2025-07-30 23:07:47,476
2025-07-30 23:07:47,515
2025-07-30 23:07:47,531
2025-07-30 23:07:47,474
2025-07-30 23:07:47,493
2025-07-30 23:07:47,539
2025-07-30 23:07:47,491
2025-07-30 23:07:47,468
2025-07-30 23:07:47,509
2025-07-30 23:07:47,499
2025-07-30 23:07:47,494
2025-07-30 23:07:47,523
2025-07-30 23:07:47,513
2025-07-30 23:07:47,465
2025-07-30 23:07:47,508
2025-07-30 23:07:47,521
2025-07-30 23:07:47,505
2025-07-30 23:07:47,503
2025-07-30 23:07:47,511
2025-07-30 23:07:47,480
2025-07-30 23:07:47,500
2025-07-30 23:07:47,523
2025-07-30 23:07:47,494
2025-07-30 23:07:47,476
2025-07-30 23:07:47,531
2025-07-30 23:07:47,493
2025-07-30 23:07:47,480
2025-07-30 23:07:47,532
2025-07-30 23:07:47,534
2025-07-30 23:07:47,476
2025-07-30 23:07:47,514
2025-07-30 23:07:47,519
2025-07-30 23:07:47,467
2025-07-30 23:07:47,524
2025-07-30 23:07:47,530
2025-07-30 23:07:47,476
2025-07-30 23:07:47,497
2025-07-30 23:07:47,525
2025-07-30 23:07:47,495
2025-07-30 23:07:47,500
2025-07-30 23:07:47,548
2025-07-30 23:07:47,507
2025-07-30 23:07:47,484
2025-07-30 23:07:47,538
2025-07-30 23:07:47,516
2025-07-30 23:07:47,483
2025-07-30 23:07:47,526
2025-07-30 23:07:47,537
2025-07-30 23:07:47,496
2025-07-30 23:07:47,504
2025-07-30 23:07:47,510
2025-07-30 23:07:47,481
2025-07-30 23:07:47,510
2025-07-30 23:07:47,544
2025-07-30 23:07:47,492
2025-07-30 23:07:47,499
2025-07-30 23:07:47,543
2025-07-30 23:07:47,521
2025-07-30 23:07:47,491
2025-07-30 23:07:47,544
2025-07-30 23:07:47,535
2025-07-30 23:07:47,493
2025-07-30 23:07:47,536
2025-07-30 23:07:47,540
2025-07-30 23:07:47,496
2025-07-30 23:07:47,528
2025-07-30 23:07:47,545
2025-07-30 23:07:47,491
2025-07-30 23:07:47,506
2025-07-30 23:07:47,542
2025-07-30 23:07:47,516
2025-07-30 23:07:47,523
2025-07-30 23:07:47,584
2025-07-30 23:07:47,537
2025-07-30 23:07:47,486
2025-07-30 23:07:47,530
2025-07-30 23:07:47,537
2025-07-30 23:07:47,484
2025-07-30 23:07:47,532
2025-07-30 23:07:47,548
2025-07-30 23:07:47,509
2025-07-30 23:07:47,532
2025-07-30 23:07:47,554
2025-07-30 23:07:47,514
2025-07-30 23:07:47,530
2025-07-30 23:07:47,568
2025-07-30 23:07:47,521
2025-07-30 23:07:47,523
2025-07-30 23:07:47,541
2025-07-30 23:07:47,529
2025-07-30 23:07:47,496
2025-07-30 23:07:47,547
2025-07-30 23:07:47,563
2025-07-30 23:07:47,526
2025-07-30 23:07:47,548
2025-07-30 23:07:47,543
2025-07-30 23:07:47,507
2025-07-30 23:07:47,528
2025-07-30 23:07:47,551
2025-07-30 23:07:47,501
2025-07-30 23:07:47,525
2025-07-30 23:07:47,565
2025-07-30 23:07:47,539
2025-07-30 23:07:47,507
2025-07-30 23:07:47,565
2025-07-30 23:07:47,534
2025-07-30 23:07:47,496
2025-07-30 23:07:47,545
2025-07-30 23:07:47,531
2025-07-30 23:07:47,497
2025-07-30 23:07:47,536
2025-07-30 23:07:47,558
2025-07-30 23:07:47,518
2025-07-30 23:07:47,522
2025-07-30 23:07:47,546
2025-07-30 23:07:47,515
2025-07-30 23:07:47,537
2025-07-30 23:07:47,571
2025-07-30 23:07:47,507
2025-07-30 23:07:47,507
2025-07-30 23:07:48,558
2025-07-30 23:07:48,550
2025-07-30 23:07:48,502
2025-07-30 23:07:48,552
2025-07-30 23:07:48,536
2025-07-30 23:07:48,492
2025-07-30 23:07:48,535
2025-07-30 23:07:48,545
2025-07-30 23:07:48,509
2025-07-30 23:07:48,538
2025-07-30 23:07:48,548
2025-07-30 23:07:48,512
2025-07-30 23:07:48,523
2025-07-30 23:07:48,564
2025-07-30 23:07:48,545
2025-07-30 23:07:48,531
2025-07-30 23:07:48,562
2025-07-30 23:07:48,520
2025-07-30 23:07:48,505
2025-07-30 23:07:48,539
2025-07-30 23:07:48,537
2025-07-30 23:07:48,499
2025-07-30 23:07:48,525
2025-07-30 23:07:48,538
2025-07-30 23:07:48,505
2025-07-30 23:07:48,527
2025-07-30 23:07:48,557
2025-07-30 23:07:48,519
2025-07-30 23:07:48,526
2025-07-30 23:07:48,551
2025-07-30 23:07:48,509
2025-07-30 23:07:48,485
2025-07-30 23:07:48,553
2025-07-30 23:07:48,526
2025-07-30 23:07:48,484
2025-07-30 23:07:48,526
2025-07-30 23:07:48,511
2025-07-30 23:07:48,482
2025-07-30 23:07:48,533
2025-07-30 23:07:48,535
2025-07-30 23:07:48,489
2025-07-30 23:07:48,514
2025-07-30 23:07:48,532
2025-07-30 23:07:48,502
2025-07-30 23:07:48,511
2025-07-30 23:07:48,553
2025-07-30 23:07:48,519
2025-07-30 23:07:48,501
2025-07-30 23:07:48,558
2025-07-30 23:07:48,511
2025-07-30 23:07:48,466
2025-07-30 23:07:48,518
2025-07-30 23:07:48,529
2025-07-30 23:07:48,497
2025-07-30 23:07:48,539
2025-07-30 23:07:48,528
2025-07-30 23:07:48,499
2025-07-30 23:07:48,523
2025-07-30 23:07:48,569
2025-07-30 23:07:48,513
2025-07-30 23:07:48,504
2025-07-30 23:07:48,540
2025-07-30 23:07:48,496
2025-07-30 23:07:48,500
2025-07-30 23:07:48,555
2025-07-30 23:07:48,539
2025-07-30 23:07:48,490
2025-07-30 23:07:48,522
2025-07-30 23:07:48,528
2025-07-30 23:07:48,500
2025-07-30 23:07:48,527
2025-07-30 23:07:48,550
2025-07-30 23:07:48,507
2025-07-30 23:07:48,526
2025-07-30 23:07:48,547
2025-07-30 23:07:48,507
2025-07-30 23:07:48,511
2025-07-30 23:07:48,556
2025-07-30 23:07:48,519
2025-07-30 23:07:48,498
2025-07-30 23:07:48,556
2025-07-30 23:07:48,525
2025-07-30 23:07:48,506
2025-07-30 23:07:48,551
2025-07-30 23:07:48,534
2025-07-30 23:07:48,487
2025-07-30 23:07:48,520
2025-07-30 23:07:48,539
2025-07-30 23:07:48,504
2025-07-30 23:07:48,521
2025-07-30 23:07:48,558
2025-07-30 23:07:48,519
2025-07-30 23:07:48,518
2025-07-30 23:07:48,569
2025-07-30 23:07:48,525
2025-07-30 23:07:48,515
2025-07-30 23:07:48,546
2025-07-30 23:07:48,529
2025-07-30 23:07:48,497
2025-07-30 23:07:48,542
2025-07-30 23:07:48,545
2025-07-30 23:07:48,503
2025-07-30 23:07:48,547
2025-07-30 23:07:48,544
2025-07-30 23:07:48,500
2025-07-30 23:07:48,519
2025-07-30 23:07:48,565
2025-07-30 23:07:48,514
2025-07-30 23:07:48,505
2025-07-30 23:07:48,566
2025-07-30 23:07:48,551
2025-07-30 23:07:48,501
2025-07-30 23:07:48,543
2025-07-30 23:07:48,543
2025-07-30 23:07:48,505
2025-07-30 23:07:48,555
2025-07-30 23:07:48,545
2025-07-30 23:07:48,505
2025-07-30 23:07:48,549
2025-07-30 23:07:48,564
2025-07-30 23:07:48,521
2025-07-30 23:07:48,535
2025-07-30 23:07:48,558
2025-07-30 23:07:48,532
2025-07-30 23:07:48,527
2025-07-30 23:07:48,560
2025-07-30 23:07:48,543
2025-07-30 23:07:48,536
2025-07-30 23:07:48,558
2025-07-30 23:07:48,559
2025-07-30 23:07:48,516
2025-07-30 23:07:48,569
2025-07-30 23:07:48,564
2025-07-30 23:07:48,513
2025-07-30 23:07:48,542
2025-07-30 23:07:48,569
2025-07-30 23:07:48,528
2025-07-30 23:07:48,545
2025-07-30 23:07:48,588
2025-07-30 23:07:48,548
2025-07-30 23:07:48,545
2025-07-30 23:07:48,576
2025-07-30 23:07:48,550
2025-07-30 23:07:48,528
2025-07-30 23:07:48,586
2025-07-30 23:07:48,578
2025-07-30 23:07:48,542
2025-07-30 23:07:48,574
2025-07-30 23:07:48,583
2025-07-30 23:07:48,532
2025-07-30 23:07:48,556
2025-07-30 23:07:48,587
2025-07-30 23:07:48,543
2025-07-30 23:07:48,546
2025-07-30 23:07:48,578
2025-07-30 23:07:48,558
2025-07-30 23:07:48,552
2025-07-30 23:07:48,595
2025-07-30 23:07:48,567
2025-07-30 23:07:48,548
2025-07-30 23:07:48,615
2025-07-30 23:07:48,577
2025-07-30 23:07:48,537
2025-07-30 23:07:48,571
2025-07-30 23:07:48,599
2025-07-30 23:07:48,554
2025-07-30 23:07:48,568
2025-07-30 23:07:48,595
2025-07-30 23:07:48,538
2025-07-30 23:07:48,563
2025-07-30 23:07:48,606
2025-07-30 23:07:48,572
2025-07-30 23:07:48,566
2025-07-30 23:07:48,610
2025-07-30 23:07:48,594
2025-07-30 23:07:48,570
2025-07-30 23:07:48,625
2025-07-30 23:07:48,617
2025-07-30 23:07:48,582
2025-07-30 23:07:48,614
2025-07-30 23:07:48,606
2025-07-30 23:07:48,574
2025-07-30 23:07:48,596
2025-07-30 23:07:48,638
2025-07-30 23:07:48,584
2025-07-30 23:07:48,595
2025-07-30 23:07:48,647
2025-07-30 23:07:48,598
2025-07-30 23:07:48,592
2025-07-30 23:07:48,634
2025-07-30 23:07:48,618
2025-07-30 23:07:48,599
2025-07-30 23:07:49,647
2025-07-30 23:07:49,628
2025-07-30 23:07:49,597
2025-07-30 23:07:49,626
2025-07-30 23:07:49,631
2025-07-30 23:07:49,597
2025-07-30 23:07:49,619
2025-07-30 23:07:49,645
2025-07-30 23:07:49,604
2025-07-30 23:07:49,600
2025-07-30 23:07:49,635
2025-07-30 23:07:49,614
2025-07-30 23:07:49,612
2025-07-30 23:07:49,630
2025-07-30 23:07:49,603
2025-07-30 23:07:49,582
2025-07-30 23:07:49,642
2025-07-30 23:07:49,637
2025-07-30 23:07:49,593
2025-07-30 23:07:49,623
2025-07-30 23:07:49,648
2025-07-30 23:07:49,604
2025-07-30 23:07:49,612
2025-07-30 23:07:49,647
2025-07-30 23:07:49,614
2025-07-30 23:07:49,603
2025-07-30 23:07:49,635
2025-07-30 23:07:49,600
2025-07-30 23:07:49,594
2025-07-30 23:07:49,643
2025-07-30 23:07:49,636
2025-07-30 23:07:49,612
2025-07-30 23:07:49,650
2025-07-30 23:07:49,651
2025-07-30 23:07:49,602
2025-07-30 23:07:49,640
2025-07-30 23:07:49,663
2025-07-30 23:07:49,640
2025-07-30 23:07:49,648
2025-07-30 23:07:49,665
2025-07-30 23:07:49,617
2025-07-30 23:07:49,616
2025-07-30 23:07:49,662
2025-07-30 23:07:49,632
2025-07-30 23:07:49,621
2025-07-30 23:07:49,654
2025-07-30 23:07:49,624
2025-07-30 23:07:49,604
2025-07-30 23:07:49,640
2025-07-30 23:07:49,632
2025-07-30 23:07:49,622
2025-07-30 23:07:49,638
2025-07-30 23:07:49,629
2025-07-30 23:07:49,586
2025-07-30 23:07:49,614
2025-07-30 23:07:49,643
2025-07-30 23:07:49,603
2025-07-30 23:07:49,602
2025-07-30 23:07:49,629
2025-07-30 23:07:49,593
2025-07-30 23:07:49,582
2025-07-30 23:07:49,624
2025-07-30 23:07:49,609
2025-07-30 23:07:49,585
2025-07-30 23:07:49,641
2025-07-30 23:07:49,630
2025-07-30 23:07:49,564
2025-07-30 23:07:49,603
2025-07-30 23:07:49,625
2025-07-30 23:07:49,579
2025-07-30 23:07:49,598
2025-07-30 23:07:49,625
2025-07-30 23:07:49,596
2025-07-30 23:07:49,607
2025-07-30 23:07:49,637
2025-07-30 23:07:49,640
2025-07-30 23:07:49,572
2025-07-30 23:07:49,596
2025-07-30 23:07:49,589
2025-07-30 23:07:49,571
2025-07-30 23:07:49,597
2025-07-30 23:07:49,599
2025-07-30 23:07:49,554
2025-07-30 23:07:49,583
2025-07-30 23:07:49,614
2025-07-30 23:07:49,578
2025-07-30 23:07:49,587
2025-07-30 23:07:49,624
2025-07-30 23:07:49,584
2025-07-30 23:07:49,567
2025-07-30 23:07:49,638
2025-07-30 23:07:49,576
2025-07-30 23:07:49,549
2025-07-30 23:07:49,585
2025-07-30 23:07:49,574
2025-07-30 23:07:49,547
2025-07-30 23:07:49,583
2025-07-30 23:07:49,578
2025-07-30 23:07:49,543
2025-07-30 23:07:49,578
2025-07-30 23:07:49,610
2025-07-30 23:07:49,553
2025-07-30 23:07:49,550
2025-07-30 23:07:49,581
2025-07-30 23:07:49,591
2025-07-30 23:07:49,565
2025-07-30 23:07:49,581
2025-07-30 23:07:49,551
2025-07-30 23:07:49,538
2025-07-30 23:07:49,592
2025-07-30 23:07:49,572
2025-07-30 23:07:49,519
2025-07-30 23:07:49,565
2025-07-30 23:07:49,571
2025-07-30 23:07:49,522
2025-07-30 23:07:49,551
2025-07-30 23:07:49,576
2025-07-30 23:07:49,528
2025-07-30 23:07:49,551
2025-07-30 23:07:49,585
2025-07-30 23:07:49,542
2025-07-30 23:07:49,548
2025-07-30 23:07:49,583
2025-07-30 23:07:49,562
2025-07-30 23:07:49,567
2025-07-30 23:07:49,566
2025-07-30 23:07:49,531
2025-07-30 23:07:49,512
2025-07-30 23:07:49,564
2025-07-30 23:07:49,559
2025-07-30 23:07:49,513
2025-07-30 23:07:49,546
2025-07-30 23:07:49,571
2025-07-30 23:07:49,533
2025-07-30 23:07:49,551
2025-07-30 23:07:49,581
2025-07-30 23:07:49,535
2025-07-30 23:07:49,547
2025-07-30 23:07:49,578
2025-07-30 23:07:49,533
2025-07-30 23:07:49,518
2025-07-30 23:07:49,554
2025-07-30 23:07:49,535
2025-07-30 23:07:49,499
2025-07-30 23:07:49,535
2025-07-30 23:07:49,548
2025-07-30 23:07:49,511
2025-07-30 23:07:49,536
2025-07-30 23:07:49,567
2025-07-30 23:07:49,516
2025-07-30 23:07:49,512
2025-07-30 23:07:49,566
2025-07-30 23:07:49,540
2025-07-30 23:07:49,513
2025-07-30 23:07:49,548
2025-07-30 23:07:49,525
2025-07-30 23:07:49,508
2025-07-30 23:07:49,560
2025-07-30 23:07:49,528
2025-07-30 23:07:49,492
2025-07-30 23:07:49,531
2025-07-30 23:07:49,541
2025-07-30 23:07:49,539
2025-07-30 23:07:49,512
2025-07-30 23:07:49,539
2025-07-30 23:07:49,496
2025-07-30 23:07:49,513
2025-07-30 23:07:49,555
2025-07-30 23:07:49,514
2025-07-30 23:07:49,483
2025-07-30 23:07:49,532
2025-07-30 23:07:49,518
2025-07-30 23:07:49,505
2025-07-30 23:07:49,556
2025-07-30 23:07:49,533
2025-07-30 23:07:49,485
2025-07-30 23:07:49,534
2025-07-30 23:07:49,548
2025-07-30 23:07:49,491
2025-07-30 23:07:49,508
2025-07-30 23:07:49,529
2025-07-30 23:07:49,489
2025-07-30 23:07:49,510
2025-07-30 23:07:49,553
2025-07-30 23:07:49,508
2025-07-30 23:07:49,492
2025-07-30 23:07:49,537
2025-07-30 23:07:49,531
2025-07-30 23:07:49,518
2025-07-30 23:07:49,529
2025-07-30 23:07:49,516
2025-07-30 23:07:49,484
2025-07-30 23:07:50,523
2025-07-30 23:07:50,541
2025-07-30 23:07:50,486
2025-07-30 23:07:50,511
2025-07-30 23:07:50,533
2025-07-30 23:07:50,493
2025-07-30 23:07:50,501
2025-07-30 23:07:50,529
2025-07-30 23:07:50,500
2025-07-30 23:07:50,483
2025-07-30 23:07:50,532
2025-07-30 23:07:50,515
2025-07-30 23:07:50,484
2025-07-30 23:07:50,528
2025-07-30 23:07:50,524
2025-07-30 23:07:50,475
2025-07-30 23:07:50,519
2025-07-30 23:07:50,530
2025-07-30 23:07:50,486
2025-07-30 23:07:50,508
2025-07-30 23:07:50,554
2025-07-30 23:07:50,493
2025-07-30 23:07:50,488
2025-07-30 23:07:50,516
2025-07-30 23:07:50,493
2025-07-30 23:07:50,487
2025-07-30 23:07:50,558
2025-07-30 23:07:50,514
2025-07-30 23:07:50,475
2025-07-30 23:07:50,508
2025-07-30 23:07:50,510
2025-07-30 23:07:50,495
2025-07-30 23:07:50,508
2025-07-30 23:07:50,520
2025-07-30 23:07:50,487
2025-07-30 23:07:50,498
2025-07-30 23:07:50,517
2025-07-30 23:07:50,482
2025-07-30 23:07:50,490
2025-07-30 23:07:50,526
2025-07-30 23:07:50,500
2025-07-30 23:07:50,488
2025-07-30 23:07:50,536
2025-07-30 23:07:50,507
2025-07-30 23:07:50,481
2025-07-30 23:07:50,506
2025-07-30 23:07:50,513
2025-07-30 23:07:50,490
2025-07-30 23:07:50,502
2025-07-30 23:07:50,508
2025-07-30 23:07:50,472
2025-07-30 23:07:50,497
2025-07-30 23:07:50,529
2025-07-30 23:07:50,488
2025-07-30 23:07:50,505
2025-07-30 23:07:50,519
2025-07-30 23:07:50,495
2025-07-30 23:07:50,482
2025-07-30 23:07:50,535
2025-07-30 23:07:50,507
2025-07-30 23:07:50,474
2025-07-30 23:07:50,514
2025-07-30 23:07:50,525
2025-07-30 23:07:50,478
2025-07-30 23:07:50,513
2025-07-30 23:07:50,514
2025-07-30 23:07:50,467
2025-07-30 23:07:50,485
2025-07-30 23:07:50,520
2025-07-30 23:07:50,479
2025-07-30 23:07:50,493
2025-07-30 23:07:50,524
2025-07-30 23:07:50,501
2025-07-30 23:07:50,486
2025-07-30 23:07:50,528
2025-07-30 23:07:50,514
2025-07-30 23:07:50,475
2025-07-30 23:07:50,509
2025-07-30 23:07:50,519
2025-07-30 23:07:50,470
2025-07-30 23:07:50,489
2025-07-30 23:07:50,526
2025-07-30 23:07:50,477
2025-07-30 23:07:50,492
2025-07-30 23:07:50,527
2025-07-30 23:07:50,499
2025-07-30 23:07:50,486
2025-07-30 23:07:50,531
2025-07-30 23:07:50,507
2025-07-30 23:07:50,499
2025-07-30 23:07:50,529
2025-07-30 23:07:50,498
2025-07-30 23:07:50,465
2025-07-30 23:07:50,499
2025-07-30 23:07:50,526
2025-07-30 23:07:50,475
2025-07-30 23:07:50,497
2025-07-30 23:07:50,512
2025-07-30 23:07:50,473
2025-07-30 23:07:50,490
2025-07-30 23:07:50,540
2025-07-30 23:07:50,492
2025-07-30 23:07:50,484
2025-07-30 23:07:50,533
2025-07-30 23:07:50,489
2025-07-30 23:07:50,473
2025-07-30 23:07:50,512
2025-07-30 23:07:50,500
2025-07-30 23:07:50,451
2025-07-30 23:07:50,509
2025-07-30 23:07:50,517
2025-07-30 23:07:50,464
2025-07-30 23:07:50,501
2025-07-30 23:07:50,545
2025-07-30 23:07:50,495
2025-07-30 23:07:50,475
2025-07-30 23:07:50,498
2025-07-30 23:07:50,482
2025-07-30 23:07:50,480
2025-07-30 23:07:50,509
2025-07-30 23:07:50,483
2025-07-30 23:07:50,469
2025-07-30 23:07:50,516
2025-07-30 23:07:50,516
2025-07-30 23:07:50,479
2025-07-30 23:07:50,500
2025-07-30 23:07:50,504
2025-07-30 23:07:50,467
2025-07-30 23:07:50,504
2025-07-30 23:07:50,566
2025-07-30 23:07:50,470
2025-07-30 23:07:50,455
2025-07-30 23:07:50,490
2025-07-30 23:07:50,469
2025-07-30 23:07:50,477
2025-07-30 23:07:50,511
2025-07-30 23:07:50,491
2025-07-30 23:07:50,457
2025-07-30 23:07:50,504
2025-07-30 23:07:50,506
2025-07-30 23:07:50,477
2025-07-30 23:07:50,503
2025-07-30 23:07:50,524
2025-07-30 23:07:50,461
2025-07-30 23:07:50,474
2025-07-30 23:07:50,500
2025-07-30 23:07:50,456
2025-07-30 23:07:50,472
2025-07-30 23:07:50,511
2025-07-30 23:07:50,479
2025-07-30 23:07:50,475
2025-07-30 23:07:50,503
2025-07-30 23:07:50,493
2025-07-30 23:07:50,473
2025-07-30 23:07:50,527
2025-07-30 23:07:50,493
2025-07-30 23:07:50,445
2025-07-30 23:07:50,495
2025-07-30 23:07:50,531
2025-07-30 23:07:50,453
2025-07-30 23:07:50,466
2025-07-30 23:07:50,501
2025-07-30 23:07:50,470
2025-07-30 23:07:50,479
2025-07-30 23:07:50,508
2025-07-30 23:07:50,475
2025-07-30 23:07:50,475
2025-07-30 23:07:50,512
2025-07-30 23:07:50,494
2025-07-30 23:07:50,470
2025-07-30 23:07:50,498
2025-07-30 23:07:50,499
2025-07-30 23:07:50,448
2025-07-30 23:07:50,484
2025-07-30 23:07:50,499
2025-07-30 23:07:50,478
2025-07-30 23:07:50,501
2025-07-30 23:07:50,514
2025-07-30 23:07:50,464
2025-07-30 23:07:50,528
2025-07-30 23:07:50,540
2025-07-30 23:07:50,459
2025-07-30 23:07:50,435
2025-07-30 23:07:50,497
2025-07-30 23:07:50,477
2025-07-30 23:07:50,451
2025-07-30 23:07:50,497
2025-07-30 23:07:50,513
2025-07-30 23:07:50,488
2025-07-30 23:07:50,481
2025-07-30 23:07:50,491
2025-07-30 23:07:50,460
2025-07-30 23:07:50,497
2025-07-30 23:07:50,521
2025-07-30 23:07:51,467
2025-07-30 23:07:51,474
2025-07-30 23:07:51,535
2025-07-30 23:07:51,490
2025-07-30 23:07:51,476
2025-07-30 23:07:51,528
2025-07-30 23:07:51,494
2025-07-30 23:07:51,436
2025-07-30 23:07:51,476
2025-07-30 23:07:51,480
2025-07-30 23:07:51,453
2025-07-30 23:07:51,492
2025-07-30 23:07:51,508
2025-07-30 23:07:51,468
2025-07-30 23:07:51,487
2025-07-30 23:07:51,513
2025-07-30 23:07:51,473
2025-07-30 23:07:51,477
2025-07-30 23:07:51,517
2025-07-30 23:07:51,473
2025-07-30 23:07:51,454
2025-07-30 23:07:51,505
2025-07-30 23:07:51,495
2025-07-30 23:07:51,459
2025-07-30 23:07:51,510
2025-07-30 23:07:51,504
2025-07-30 23:07:51,457
2025-07-30 23:07:51,508
2025-07-30 23:07:51,522
2025-07-30 23:07:51,460
2025-07-30 23:07:51,496
2025-07-30 23:07:51,536
2025-07-30 23:07:51,492
2025-07-30 23:07:51,496
2025-07-30 23:07:51,499
2025-07-30 23:07:51,479
2025-07-30 23:07:51,469
2025-07-30 23:07:51,499
2025-07-30 23:07:51,500
2025-07-30 23:07:51,450
2025-07-30 23:07:51,494
2025-07-30 23:07:51,504
2025-07-30 23:07:51,477
2025-07-30 23:07:51,488
2025-07-30 23:07:51,500
2025-07-30 23:07:51,469
2025-07-30 23:07:51,491
2025-07-30 23:07:51,508
2025-07-30 23:07:51,475
2025-07-30 23:07:51,468
2025-07-30 23:07:51,514
2025-07-30 23:07:51,479
2025-07-30 23:07:51,455
2025-07-30 23:07:51,501
2025-07-30 23:07:51,493
2025-07-30 23:07:51,475
2025-07-30 23:07:51,517
2025-07-30 23:07:51,505
2025-07-30 23:07:51,464
2025-07-30 23:07:51,483
2025-07-30 23:07:51,513
2025-07-30 23:07:51,480
2025-07-30 23:07:51,488
2025-07-30 23:07:51,511
2025-07-30 23:07:51,491
2025-07-30 23:07:51,468
2025-07-30 23:07:51,509
2025-07-30 23:07:51,504
2025-07-30 23:07:51,462
2025-07-30 23:07:51,506
2025-07-30 23:07:51,501
2025-07-30 23:07:51,473
2025-07-30 23:07:51,495
2025-07-30 23:07:51,501
2025-07-30 23:07:51,464
2025-07-30 23:07:51,499
2025-07-30 23:07:51,516
2025-07-30 23:07:51,471
2025-07-30 23:07:51,484
2025-07-30 23:07:51,525
2025-07-30 23:07:51,507
2025-07-30 23:07:51,468
2025-07-30 23:07:51,509
2025-07-30 23:07:51,488
2025-07-30 23:07:51,460
2025-07-30 23:07:51,503
2025-07-30 23:07:51,490
2025-07-30 23:07:51,456
2025-07-30 23:07:51,498
2025-07-30 23:07:51,521
2025-07-30 23:07:51,482
2025-07-30 23:07:51,509
2025-07-30 23:07:51,525
2025-07-30 23:07:51,485
2025-07-30 23:07:51,484
2025-07-30 23:07:51,500
2025-07-30 23:07:51,494
2025-07-30 23:07:51,476
2025-07-30 23:07:51,504
2025-07-30 23:07:51,486
2025-07-30 23:07:51,467
2025-07-30 23:07:51,524
2025-07-30 23:07:51,518
2025-07-30 23:07:51,470
2025-07-30 23:07:51,498
2025-07-30 23:07:51,509
2025-07-30 23:07:51,465
2025-07-30 23:07:51,496
2025-07-30 23:07:51,525
2025-07-30 23:07:51,498
2025-07-30 23:07:51,492
2025-07-30 23:07:51,521
2025-07-30 23:07:51,484
2025-07-30 23:07:51,478
2025-07-30 23:07:51,523
2025-07-30 23:07:51,504
2025-07-30 23:07:51,490
2025-07-30 23:07:51,512
2025-07-30 23:07:51,496
2025-07-30 23:07:51,467
2025-07-30 23:07:51,497
2025-07-30 23:07:51,511
2025-07-30 23:07:51,463
2025-07-30 23:07:51,477
2025-07-30 23:07:51,505
2025-07-30 23:07:51,471
2025-07-30 23:07:51,476
2025-07-30 23:07:51,524
2025-07-30 23:07:51,488
2025-07-30 23:07:51,457
2025-07-30 23:07:51,498
2025-07-30 23:07:51,491
2025-07-30 23:07:51,465
2025-07-30 23:07:51,523
2025-07-30 23:07:51,529
2025-07-30 23:07:51,459
2025-07-30 23:07:51,488
2025-07-30 23:07:51,499
2025-07-30 23:07:51,467
2025-07-30 23:07:51,495
2025-07-30 23:07:51,524
2025-07-30 23:07:51,483
2025-07-30 23:07:51,467
2025-07-30 23:07:51,519
2025-07-30 23:07:51,505
2025-07-30 23:07:51,480
2025-07-30 23:07:51,514
2025-07-30 23:07:51,497
2025-07-30 23:07:51,466
2025-07-30 23:07:51,518
2025-07-30 23:07:51,513
2025-07-30 23:07:51,472
2025-07-30 23:07:51,503
2025-07-30 23:07:51,521
2025-07-30 23:07:51,492
2025-07-30 23:07:51,496
2025-07-30 23:07:51,534
2025-07-30 23:07:51,488
2025-07-30 23:07:51,500
2025-07-30 23:07:51,541
2025-07-30 23:07:51,493
2025-07-30 23:07:51,480
2025-07-30 23:07:51,525
2025-07-30 23:07:51,519
2025-07-30 23:07:51,489
2025-07-30 23:07:51,526
2025-07-30 23:07:51,521
2025-07-30 23:07:51,483
2025-07-30 23:07:51,523
2025-07-30 23:07:51,542
2025-07-30 23:07:51,504
2025-07-30 23:07:51,526
2025-07-30 23:07:51,547
2025-07-30 23:07:51,504
2025-07-30 23:07:51,525
2025-07-30 23:07:51,556
2025-07-30 23:07:51,518
2025-07-30 23:07:51,487
2025-07-30 23:07:51,525
2025-07-30 23:07:51,512
2025-07-30 23:07:51,501
2025-07-30 23:07:51,537
2025-07-30 23:07:51,533
2025-07-30 23:07:51,486
2025-07-30 23:07:51,515
2025-07-30 23:07:51,553
2025-07-30 23:07:51,500
2025-07-30 23:07:51,518
2025-07-30 23:07:51,539
2025-07-30 23:07:51,502
2025-07-30 23:07:52,498
2025-07-30 23:07:52,539
2025-07-30 23:07:52,505
2025-07-30 23:07:52,498
2025-07-30 23:07:52,539
2025-07-30 23:07:52,526
2025-07-30 23:07:52,504
2025-07-30 23:07:52,538
2025-07-30 23:07:52,534
2025-07-30 23:07:52,504
2025-07-30 23:07:52,523
2025-07-30 23:07:52,544
2025-07-30 23:07:52,490
2025-07-30 23:07:52,508
2025-07-30 23:07:52,539
2025-07-30 23:07:52,515
2025-07-30 23:07:52,507
2025-07-30 23:07:52,551
2025-07-30 23:07:52,521
2025-07-30 23:07:52,504
2025-07-30 23:07:52,539
2025-07-30 23:07:52,521
2025-07-30 23:07:52,495
2025-07-30 23:07:52,534
2025-07-30 23:07:52,551
2025-07-30 23:07:52,500
2025-07-30 23:07:52,531
2025-07-30 23:07:52,556
2025-07-30 23:07:52,504
2025-07-30 23:07:52,533
2025-07-30 23:07:52,568
2025-07-30 23:07:52,513
2025-07-30 23:07:52,511
2025-07-30 23:07:52,572
2025-07-30 23:07:52,533
2025-07-30 23:07:52,502
2025-07-30 23:07:52,543
2025-07-30 23:07:52,540
2025-07-30 23:07:52,505
2025-07-30 23:07:52,550
2025-07-30 23:07:52,556
2025-07-30 23:07:52,511
2025-07-30 23:07:52,531
2025-07-30 23:07:52,545
2025-07-30 23:07:52,516
2025-07-30 23:07:52,527
2025-07-30 23:07:52,554
2025-07-30 23:07:52,521
2025-07-30 23:07:52,517
2025-07-30 23:07:52,562
2025-07-30 23:07:52,552
2025-07-30 23:07:52,513
2025-07-30 23:07:52,563
2025-07-30 23:07:52,554
2025-07-30 23:07:52,509
2025-07-30 23:07:52,538
2025-07-30 23:07:52,552
2025-07-30 23:07:52,516
2025-07-30 23:07:52,537
2025-07-30 23:07:52,562
2025-07-30 23:07:52,516
2025-07-30 23:07:52,531
2025-07-30 23:07:52,574
2025-07-30 23:07:52,529
2025-07-30 23:07:52,528
2025-07-30 23:07:52,569
2025-07-30 23:07:52,542
2025-07-30 23:07:52,515
2025-07-30 23:07:52,550
2025-07-30 23:07:52,545
2025-07-30 23:07:52,522
2025-07-30 23:07:52,570
2025-07-30 23:07:52,558
2025-07-30 23:07:52,522
2025-07-30 23:07:52,548
2025-07-30 23:07:52,565
2025-07-30 23:07:52,527
2025-07-30 23:07:52,530
2025-07-30 23:07:52,573
2025-07-30 23:07:52,547
2025-07-30 23:07:52,537
2025-07-30 23:07:52,569
2025-07-30 23:07:52,547
2025-07-30 23:07:52,528
2025-07-30 23:07:52,568
2025-07-30 23:07:52,564
2025-07-30 23:07:52,524
2025-07-30 23:07:52,561
2025-07-30 23:07:52,570
2025-07-30 23:07:52,539
2025-07-30 23:07:52,546
2025-07-30 23:07:52,577
2025-07-30 23:07:52,523
2025-07-30 23:07:52,544
2025-07-30 23:07:52,582
2025-07-30 23:07:52,552
2025-07-30 23:07:52,535
2025-07-30 23:07:52,579
2025-07-30 23:07:52,563
2025-07-30 23:07:52,536
2025-07-30 23:07:52,575
2025-07-30 23:07:52,557
2025-07-30 23:07:52,548
2025-07-30 23:07:52,582
2025-07-30 23:07:52,572
2025-07-30 23:07:52,532
2025-07-30 23:07:52,568
2025-07-30 23:07:52,599
2025-07-30 23:07:52,542
2025-07-30 23:07:52,545
2025-07-30 23:07:52,586
2025-07-30 23:07:52,560
2025-07-30 23:07:52,552
2025-07-30 23:07:52,592
2025-07-30 23:07:52,575
2025-07-30 23:07:52,547
2025-07-30 23:07:52,588
2025-07-30 23:07:52,584
2025-07-30 23:07:52,549
2025-07-30 23:07:52,580
2025-07-30 23:07:52,576
2025-07-30 23:07:52,537
2025-07-30 23:07:52,560
2025-07-30 23:07:52,601
2025-07-30 23:07:52,557
2025-07-30 23:07:52,564
2025-07-30 23:07:52,604
2025-07-30 23:07:52,573
2025-07-30 23:07:52,569
2025-07-30 23:07:52,611
2025-07-30 23:07:52,580
2025-07-30 23:07:52,561
2025-07-30 23:07:52,614
2025-07-30 23:07:52,605
2025-07-30 23:07:52,554
2025-07-30 23:07:52,576
2025-07-30 23:07:52,600
2025-07-30 23:07:52,551
2025-07-30 23:07:52,576
2025-07-30 23:07:52,599
2025-07-30 23:07:52,562
2025-07-30 23:07:52,565
2025-07-30 23:07:52,612
2025-07-30 23:07:52,569
2025-07-30 23:07:52,549
2025-07-30 23:07:52,592
2025-07-30 23:07:52,575
2025-07-30 23:07:52,540
2025-07-30 23:07:52,592
2025-07-30 23:07:52,596
2025-07-30 23:07:52,545
2025-07-30 23:07:52,587
2025-07-30 23:07:52,586
2025-07-30 23:07:52,535
2025-07-30 23:07:52,563
2025-07-30 23:07:52,600
2025-07-30 23:07:52,557
2025-07-30 23:07:52,544
2025-07-30 23:07:52,588
2025-07-30 23:07:52,563
2025-07-30 23:07:52,539
2025-07-30 23:07:52,582
2025-07-30 23:07:52,567
2025-07-30 23:07:52,536
2025-07-30 23:07:52,587
2025-07-30 23:07:52,578
2025-07-30 23:07:52,530
2025-07-30 23:07:52,562
2025-07-30 23:07:52,597
2025-07-30 23:07:52,538
2025-07-30 23:07:52,538
2025-07-30 23:07:52,571
2025-07-30 23:07:52,533
2025-07-30 23:07:52,545
2025-07-30 23:07:52,575
2025-07-30 23:07:52,557
2025-07-30 23:07:52,540
2025-07-30 23:07:52,582
2025-07-30 23:07:52,564
2025-07-30 23:07:52,535
2025-07-30 23:07:52,587
2025-07-30 23:07:52,577
2025-07-30 23:07:52,540
2025-07-30 23:07:52,555
2025-07-30 23:07:52,573
2025-07-30 23:07:52,537
2025-07-30 23:07:52,546
2025-07-30 23:07:52,580
2025-07-30 23:07:52,535
2025-07-30 23:07:52,520
2025-07-30 23:07:52,557
2025-07-30 23:07:52,534
2025-07-30 23:07:52,507
2025-07-30 23:07:52,547
2025-07-30 23:07:53,547
2025-07-30 23:07:53,498
2025-07-30 23:07:53,506
2025-07-30 23:07:53,507
2025-07-30 23:07:53,467
2025-07-30 23:07:53,498
2025-07-30 23:07:53,526
2025-07-30 23:07:53,482
2025-07-30 23:07:53,493
2025-07-30 23:07:53,513
2025-07-30 23:07:53,474
2025-07-30 23:07:53,471
2025-07-30 23:07:53,526
2025-07-30 23:07:53,481
2025-07-30 23:07:53,451
2025-07-30 23:07:53,496
2025-07-30 23:07:53,499
2025-07-30 23:07:53,460
2025-07-30 23:07:53,491
2025-07-30 23:07:53,497
2025-07-30 23:07:53,459
2025-07-30 23:07:53,485
2025-07-30 23:07:53,498
2025-07-30 23:07:53,458
2025-07-30 23:07:53,492
2025-07-30 23:07:53,519
2025-07-30 23:07:53,462
2025-07-30 23:07:53,453
2025-07-30 23:07:53,497
2025-07-30 23:07:53,473
2025-07-30 23:07:53,453
2025-07-30 23:07:53,499
2025-07-30 23:07:53,488
2025-07-30 23:07:53,449
2025-07-30 23:07:53,492
2025-07-30 23:07:53,503
2025-07-30 23:07:53,454
2025-07-30 23:07:53,460
2025-07-30 23:07:53,503
2025-07-30 23:07:53,467
2025-07-30 23:07:53,482
2025-07-30 23:07:53,498
2025-07-30 23:07:53,462
2025-07-30 23:07:53,457
2025-07-30 23:07:53,506
2025-07-30 23:07:53,482
2025-07-30 23:07:53,447
2025-07-30 23:07:53,490
2025-07-30 23:07:53,478
2025-07-30 23:07:53,452
2025-07-30 23:07:53,481
2025-07-30 23:07:53,489
2025-07-30 23:07:53,450
2025-07-30 23:07:53,473
2025-07-30 23:07:53,501
2025-07-30 23:07:53,458
2025-07-30 23:07:53,475
2025-07-30 23:07:53,523
2025-07-30 23:07:53,473
2025-07-30 23:07:53,451
2025-07-30 23:07:53,487
2025-07-30 23:07:53,479
2025-07-30 23:07:53,458
2025-07-30 23:07:53,492
2025-07-30 23:07:53,490
2025-07-30 23:07:53,451
2025-07-30 23:07:53,484
2025-07-30 23:07:53,495
2025-07-30 23:07:53,448
2025-07-30 23:07:53,475
2025-07-30 23:07:53,504
2025-07-30 23:07:53,481
2025-07-30 23:07:53,474
2025-07-30 23:07:53,514
2025-07-30 23:07:53,467
2025-07-30 23:07:53,454
2025-07-30 23:07:53,496
2025-07-30 23:07:53,468
2025-07-30 23:07:53,442
2025-07-30 23:07:53,487
2025-07-30 23:07:53,489
2025-07-30 23:07:53,440
2025-07-30 23:07:53,478
2025-07-30 23:07:53,499
2025-07-30 23:07:53,462
2025-07-30 23:07:53,471
2025-07-30 23:07:53,503
2025-07-30 23:07:53,452
2025-07-30 23:07:53,459
2025-07-30 23:07:53,511
2025-07-30 23:07:53,484
2025-07-30 23:07:53,452
2025-07-30 23:07:53,487
2025-07-30 23:07:53,472
2025-07-30 23:07:53,458
2025-07-30 23:07:53,485
2025-07-30 23:07:53,491
2025-07-30 23:07:53,460
2025-07-30 23:07:53,481
2025-07-30 23:07:53,485
2025-07-30 23:07:53,448
2025-07-30 23:07:53,476
2025-07-30 23:07:53,510
2025-07-30 23:07:53,462
2025-07-30 23:07:53,462
2025-07-30 23:07:53,493
2025-07-30 23:07:53,466
2025-07-30 23:07:53,461
2025-07-30 23:07:53,489
2025-07-30 23:07:53,479
2025-07-30 23:07:53,443
2025-07-30 23:07:53,477
2025-07-30 23:07:53,488
2025-07-30 23:07:53,453
2025-07-30 23:07:53,485
2025-07-30 23:07:53,493
2025-07-30 23:07:53,457
2025-07-30 23:07:53,478
2025-07-30 23:07:53,495
2025-07-30 23:07:53,450
2025-07-30 23:07:53,460
2025-07-30 23:07:53,502
2025-07-30 23:07:53,467
2025-07-30 23:07:53,447
2025-07-30 23:07:53,495
2025-07-30 23:07:53,480
2025-07-30 23:07:53,455
2025-07-30 23:07:53,490
2025-07-30 23:07:53,496
2025-07-30 23:07:53,458
2025-07-30 23:07:53,474
2025-07-30 23:07:53,493
2025-07-30 23:07:53,451
2025-07-30 23:07:53,475
2025-07-30 23:07:53,494
2025-07-30 23:07:53,463
2025-07-30 23:07:53,459
2025-07-30 23:07:53,494
2025-07-30 23:07:53,472
2025-07-30 23:07:53,447
2025-07-30 23:07:53,495
2025-07-30 23:07:53,483
2025-07-30 23:07:53,454
2025-07-30 23:07:53,490
2025-07-30 23:07:53,495
2025-07-30 23:07:53,459
2025-07-30 23:07:53,476
2025-07-30 23:07:53,505
2025-07-30 23:07:53,467
2025-07-30 23:07:53,468
2025-07-30 23:07:53,507
2025-07-30 23:07:53,470
2025-07-30 23:07:53,467
2025-07-30 23:07:53,508
2025-07-30 23:07:53,484
2025-07-30 23:07:53,462
2025-07-30 23:07:53,502
2025-07-30 23:07:53,493
2025-07-30 23:07:53,456
2025-07-30 23:07:53,497
2025-07-30 23:07:53,500
2025-07-30 23:07:53,467
2025-07-30 23:07:53,490
2025-07-30 23:07:53,522
2025-07-30 23:07:53,448
2025-07-30 23:07:53,466
2025-07-30 23:07:53,511
2025-07-30 23:07:53,478
2025-07-30 23:07:53,470
2025-07-30 23:07:53,517
2025-07-30 23:07:53,487
2025-07-30 23:07:53,465
2025-07-30 23:07:53,506
2025-07-30 23:07:53,496
2025-07-30 23:07:53,468
2025-07-30 23:07:53,515
2025-07-30 23:07:53,512
2025-07-30 23:07:53,467
2025-07-30 23:07:53,489
2025-07-30 23:07:53,501
2025-07-30 23:07:53,464
2025-07-30 23:07:53,475
2025-07-30 23:07:53,520
2025-07-30 23:07:53,484
2025-07-30 23:07:53,472
2025-07-30 23:07:53,522
2025-07-30 23:07:53,504
2025-07-30 23:07:53,473
2025-07-30 23:07:53,498
2025-07-30 23:07:53,498
2025-07-30 23:07:53,473
2025-07-30 23:07:54,506
2025-07-30 23:07:54,517
2025-07-30 23:07:54,458
2025-07-30 23:07:54,484
2025-07-30 23:07:54,507
2025-07-30 23:07:54,471
2025-07-30 23:07:54,483
2025-07-30 23:07:54,521
2025-07-30 23:07:54,483
2025-07-30 23:07:54,481
2025-07-30 23:07:54,514
2025-07-30 23:07:54,492
2025-07-30 23:07:54,466
2025-07-30 23:07:54,522
2025-07-30 23:07:54,504
2025-07-30 23:07:54,470
2025-07-30 23:07:54,498
2025-07-30 23:07:54,513
2025-07-30 23:07:54,473
2025-07-30 23:07:54,498
2025-07-30 23:07:54,507
2025-07-30 23:07:54,470
2025-07-30 23:07:54,489
2025-07-30 23:07:54,519
2025-07-30 23:07:54,489
2025-07-30 23:07:54,477
2025-07-30 23:07:54,527
2025-07-30 23:07:54,500
2025-07-30 23:07:54,471
2025-07-30 23:07:54,510
2025-07-30 23:07:54,510
2025-07-30 23:07:54,468
2025-07-30 23:07:54,512
2025-07-30 23:07:54,512
2025-07-30 23:07:54,468
2025-07-30 23:07:54,494
2025-07-30 23:07:54,514
2025-07-30 23:07:54,474
2025-07-30 23:07:54,480
2025-07-30 23:07:54,516
2025-07-30 23:07:54,501
2025-07-30 23:07:54,477
2025-07-30 23:07:54,512
2025-07-30 23:07:54,490
2025-07-30 23:07:54,466
2025-07-30 23:07:54,520
2025-07-30 23:07:54,516
2025-07-30 23:07:54,462
2025-07-30 23:07:54,499
2025-07-30 23:07:54,514
2025-07-30 23:07:54,466
2025-07-30 23:07:54,481
2025-07-30 23:07:54,517
2025-07-30 23:07:54,475
2025-07-30 23:07:54,482
2025-07-30 23:07:54,514
2025-07-30 23:07:54,483
2025-07-30 23:07:54,473
2025-07-30 23:07:54,517
2025-07-30 23:07:54,498
2025-07-30 23:07:54,463
2025-07-30 23:07:54,509
2025-07-30 23:07:54,512
2025-07-30 23:07:54,480
2025-07-30 23:07:54,499
2025-07-30 23:07:54,512
2025-07-30 23:07:54,466
2025-07-30 23:07:54,499
2025-07-30 23:07:54,524
2025-07-30 23:07:54,482
2025-07-30 23:07:54,476
2025-07-30 23:07:54,510
2025-07-30 23:07:54,486
2025-07-30 23:07:54,472
2025-07-30 23:07:54,507
2025-07-30 23:07:54,490
2025-07-30 23:07:54,466
2025-07-30 23:07:54,521
2025-07-30 23:07:54,507
2025-07-30 23:07:54,468
2025-07-30 23:07:54,506
2025-07-30 23:07:54,495
2025-07-30 23:07:54,453
2025-07-30 23:07:54,466
2025-07-30 23:07:54,498
2025-07-30 23:07:54,468
2025-07-30 23:07:54,468
2025-07-30 23:07:54,506
2025-07-30 23:07:54,472
2025-07-30 23:07:54,452
2025-07-30 23:07:54,498
2025-07-30 23:07:54,478
2025-07-30 23:07:54,456
2025-07-30 23:07:54,519
2025-07-30 23:07:54,497
2025-07-30 23:07:54,454
2025-07-30 23:07:54,479
2025-07-30 23:07:54,499
2025-07-30 23:07:54,464
2025-07-30 23:07:54,480
2025-07-30 23:07:54,512
2025-07-30 23:07:54,478
2025-07-30 23:07:54,482
2025-07-30 23:07:54,501
2025-07-30 23:07:54,488
2025-07-30 23:07:54,455
2025-07-30 23:07:54,495
2025-07-30 23:07:54,502
2025-07-30 23:07:54,451
2025-07-30 23:07:54,497
2025-07-30 23:07:54,498
2025-07-30 23:07:54,451
2025-07-30 23:07:54,487
2025-07-30 23:07:54,510
2025-07-30 23:07:54,480
2025-07-30 23:07:54,476
2025-07-30 23:07:54,510
2025-07-30 23:07:54,468
2025-07-30 23:07:54,471
2025-07-30 23:07:54,513
2025-07-30 23:07:54,485
2025-07-30 23:07:54,452
2025-07-30 23:07:54,513
2025-07-30 23:07:54,499
2025-07-30 23:07:54,446
2025-07-30 23:07:54,494
2025-07-30 23:07:54,522
2025-07-30 23:07:54,453
2025-07-30 23:07:54,478
2025-07-30 23:07:54,508
2025-07-30 23:07:54,462
2025-07-30 23:07:54,474
2025-07-30 23:07:54,501
2025-07-30 23:07:54,462
2025-07-30 23:07:54,473
2025-07-30 23:07:54,518
2025-07-30 23:07:54,493
2025-07-30 23:07:54,480
2025-07-30 23:07:54,502
2025-07-30 23:07:54,489
2025-07-30 23:07:54,457
2025-07-30 23:07:54,508
2025-07-30 23:07:54,508
2025-07-30 23:07:54,466
2025-07-30 23:07:54,491
2025-07-30 23:07:54,504
2025-07-30 23:07:54,456
2025-07-30 23:07:54,476
2025-07-30 23:07:54,512
2025-07-30 23:07:54,484
2025-07-30 23:07:54,473
2025-07-30 23:07:54,541
2025-07-30 23:07:54,487
2025-07-30 23:07:54,468
2025-07-30 23:07:54,505
2025-07-30 23:07:54,490
2025-07-30 23:07:54,454
2025-07-30 23:07:54,498
2025-07-30 23:07:54,504
2025-07-30 23:07:54,458
2025-07-30 23:07:54,491
2025-07-30 23:07:54,515
2025-07-30 23:07:54,473
2025-07-30 23:07:54,487
2025-07-30 23:07:54,523
2025-07-30 23:07:54,510
2025-07-30 23:07:54,476
2025-07-30 23:07:54,502
2025-07-30 23:07:54,491
2025-07-30 23:07:54,467
2025-07-30 23:07:54,504
2025-07-30 23:07:54,511
2025-07-30 23:07:54,476
2025-07-30 23:07:54,499
2025-07-30 23:07:54,514
2025-07-30 23:07:54,468
2025-07-30 23:07:54,494
2025-07-30 23:07:54,520
2025-07-30 23:07:54,461
2025-07-30 23:07:54,468
2025-07-30 23:07:54,512
2025-07-30 23:07:54,483
2025-07-30 23:07:54,468
2025-07-30 23:07:54,514
2025-07-30 23:07:54,490
2025-07-30 23:07:54,462
2025-07-30 23:07:54,523
2025-07-30 23:07:54,493
2025-07-30 23:07:54,486
2025-07-30 23:07:54,492
2025-07-30 23:07:54,506
2025-07-30 23:07:54,468
2025-07-30 23:07:54,490
2025-07-30 23:07:55,507
2025-07-30 23:07:55,460
2025-07-30 23:07:55,466
2025-07-30 23:07:55,515
2025-07-30 23:07:55,498
2025-07-30 23:07:55,481
2025-07-30 23:07:55,518
2025-07-30 23:07:55,496
2025-07-30 23:07:55,458
2025-07-30 23:07:55,512
2025-07-30 23:07:55,500
2025-07-30 23:07:55,466
2025-07-30 23:07:55,499
2025-07-30 23:07:55,505
2025-07-30 23:07:55,467
2025-07-30 23:07:55,489
2025-07-30 23:07:55,522
2025-07-30 23:07:55,478
2025-07-30 23:07:55,476
2025-07-30 23:07:55,507
2025-07-30 23:07:55,479
2025-07-30 23:07:55,481
2025-07-30 23:07:55,524
2025-07-30 23:07:55,485
2025-07-30 23:07:55,458
2025-07-30 23:07:55,512
2025-07-30 23:07:55,503
2025-07-30 23:07:55,461
2025-07-30 23:07:55,507
2025-07-30 23:07:55,510
2025-07-30 23:07:55,464
2025-07-30 23:07:55,480
2025-07-30 23:07:55,517
2025-07-30 23:07:55,470
2025-07-30 23:07:55,474
2025-07-30 23:07:55,518
2025-07-30 23:07:55,492
2025-07-30 23:07:55,477
2025-07-30 23:07:55,518
2025-07-30 23:07:55,522
2025-07-30 23:07:55,463
2025-07-30 23:07:55,509
2025-07-30 23:07:55,510
2025-07-30 23:07:55,459
2025-07-30 23:07:55,497
2025-07-30 23:07:55,514
2025-07-30 23:07:55,466
2025-07-30 23:07:55,494
2025-07-30 23:07:55,508
2025-07-30 23:07:55,477
2025-07-30 23:07:55,470
2025-07-30 23:07:55,520
2025-07-30 23:07:55,492
2025-07-30 23:07:55,464
2025-07-30 23:07:55,499
2025-07-30 23:07:55,506
2025-07-30 23:07:55,477
2025-07-30 23:07:55,504
2025-07-30 23:07:55,517
2025-07-30 23:07:55,467
2025-07-30 23:07:55,487
2025-07-30 23:07:55,505
2025-07-30 23:07:55,470
2025-07-30 23:07:55,499
2025-07-30 23:07:55,517
2025-07-30 23:07:55,486
2025-07-30 23:07:55,465
2025-07-30 23:07:55,506
2025-07-30 23:07:55,489
2025-07-30 23:07:55,473
2025-07-30 23:07:55,526
2025-07-30 23:07:55,505
2025-07-30 23:07:55,461
2025-07-30 23:07:55,503
2025-07-30 23:07:55,506
2025-07-30 23:07:55,479
2025-07-30 23:07:55,500
2025-07-30 23:07:55,517
2025-07-30 23:07:55,467
2025-07-30 23:07:55,478
2025-07-30 23:07:55,514
2025-07-30 23:07:55,489
2025-07-30 23:07:55,476
2025-07-30 23:07:55,519
2025-07-30 23:07:55,493
2025-07-30 23:07:55,475
2025-07-30 23:07:55,512
2025-07-30 23:07:55,504
2025-07-30 23:07:55,471
2025-07-30 23:07:55,508
2025-07-30 23:07:55,516
2025-07-30 23:07:55,476
2025-07-30 23:07:55,488
2025-07-30 23:07:55,499
2025-07-30 23:07:55,471
2025-07-30 23:07:55,485
2025-07-30 23:07:55,515
2025-07-30 23:07:55,473
2025-07-30 23:07:55,471
2025-07-30 23:07:55,519
2025-07-30 23:07:55,484
2025-07-30 23:07:55,475
2025-07-30 23:07:55,512
2025-07-30 23:07:55,501
2025-07-30 23:07:55,484
2025-07-30 23:07:55,518
2025-07-30 23:07:55,512
2025-07-30 23:07:55,470
2025-07-30 23:07:55,485
2025-07-30 23:07:55,528
2025-07-30 23:07:55,483
2025-07-30 23:07:55,476
2025-07-30 23:07:55,513
2025-07-30 23:07:55,487
2025-07-30 23:07:55,484
2025-07-30 23:07:55,513
2025-07-30 23:07:55,494
2025-07-30 23:07:55,477
2025-07-30 23:07:55,518
2025-07-30 23:07:55,520
2025-07-30 23:07:55,492
2025-07-30 23:07:55,512
2025-07-30 23:07:55,514
2025-07-30 23:07:55,476
2025-07-30 23:07:55,499
2025-07-30 23:07:55,525
2025-07-30 23:07:55,498
2025-07-30 23:07:55,487
2025-07-30 23:07:55,517
2025-07-30 23:07:55,491
2025-07-30 23:07:55,478
2025-07-30 23:07:55,527
2025-07-30 23:07:55,500
2025-07-30 23:07:55,472
2025-07-30 23:07:55,512
2025-07-30 23:07:55,505
2025-07-30 23:07:55,476
2025-07-30 23:07:55,509
2025-07-30 23:07:55,515
2025-07-30 23:07:55,477
2025-07-30 23:07:55,501
2025-07-30 23:07:55,533
2025-07-30 23:07:55,489
2025-07-30 23:07:55,506
2025-07-30 23:07:55,514
2025-07-30 23:07:55,484
2025-07-30 23:07:55,473
2025-07-30 23:07:55,520
2025-07-30 23:07:55,489
2025-07-30 23:07:55,477
2025-07-30 23:07:55,524
2025-07-30 23:07:55,520
2025-07-30 23:07:55,475
2025-07-30 23:07:55,502
2025-07-30 23:07:55,517
2025-07-30 23:07:55,482
2025-07-30 23:07:55,514
2025-07-30 23:07:55,536
2025-07-30 23:07:55,479
2025-07-30 23:07:55,483
2025-07-30 23:07:55,517
2025-07-30 23:07:55,492
2025-07-30 23:07:55,481
2025-07-30 23:07:55,524
2025-07-30 23:07:55,506
2025-07-30 23:07:55,483
2025-07-30 23:07:55,510
2025-07-30 23:07:55,510
2025-07-30 23:07:55,471
2025-07-30 23:07:55,504
2025-07-30 23:07:55,520
2025-07-30 23:07:55,473
2025-07-30 23:07:55,493
2025-07-30 23:07:55,532
2025-07-30 23:07:55,496
2025-07-30 23:07:55,476
2025-07-30 23:07:55,520
2025-07-30 23:07:55,490
2025-07-30 23:07:55,487
2025-07-30 23:07:55,517
2025-07-30 23:07:55,497
2025-07-30 23:07:55,465
2025-07-30 23:07:55,502
2025-07-30 23:07:55,501
2025-07-30 23:07:55,461
2025-07-30 23:07:55,500
2025-07-30 23:07:55,522
2025-07-30 23:07:55,475
2025-07-30 23:07:55,496
2025-07-30 23:07:55,544
2025-07-30 23:07:55,493
2025-07-30 23:07:55,466
2025-07-30 23:07:55,506
2025-07-30 23:07:55,508
2025-07-30 23:07:56,483
2025-07-30 23:07:56,518
2025-07-30 23:07:56,504
2025-07-30 23:07:56,477
2025-07-30 23:07:56,513
2025-07-30 23:07:56,511
2025-07-30 23:07:56,472
2025-07-30 23:07:56,497
2025-07-30 23:07:56,517
2025-07-30 23:07:56,487
2025-07-30 23:07:56,516
2025-07-30 23:07:56,521
2025-07-30 23:07:56,468
2025-07-30 23:07:56,474
2025-07-30 23:07:56,514
2025-07-30 23:07:56,485
2025-07-30 23:07:56,481
2025-07-30 23:07:56,509
2025-07-30 23:07:56,494
2025-07-30 23:07:56,468
2025-07-30 23:07:56,517
2025-07-30 23:07:56,511
2025-07-30 23:07:56,478
2025-07-30 23:07:56,506
2025-07-30 23:07:56,523
2025-07-30 23:07:56,470
2025-07-30 23:07:56,487
2025-07-30 23:07:56,515
2025-07-30 23:07:56,485
2025-07-30 23:07:56,487
2025-07-30 23:07:56,514
2025-07-30 23:07:56,491
2025-07-30 23:07:56,478
2025-07-30 23:07:56,524
2025-07-30 23:07:56,495
2025-07-30 23:07:56,462
2025-07-30 23:07:56,494
2025-07-30 23:07:56,495
2025-07-30 23:07:56,456
2025-07-30 23:07:56,486
2025-07-30 23:07:56,500
2025-07-30 23:07:56,470
2025-07-30 23:07:56,487
2025-07-30 23:07:56,527
2025-07-30 23:07:56,484
2025-07-30 23:07:56,474
2025-07-30 23:07:56,521
2025-07-30 23:07:56,515
2025-07-30 23:07:56,452
2025-07-30 23:07:56,484
2025-07-30 23:07:56,496
2025-07-30 23:07:56,457
2025-07-30 23:07:56,496
2025-07-30 23:07:56,504
2025-07-30 23:07:56,466
2025-07-30 23:07:56,483
2025-07-30 23:07:56,512
2025-07-30 23:07:56,468
2025-07-30 23:07:56,480
2025-07-30 23:07:56,504
2025-07-30 23:07:56,485
2025-07-30 23:07:56,488
2025-07-30 23:07:56,495
2025-07-30 23:07:56,474
2025-07-30 23:07:56,458
2025-07-30 23:07:56,504
2025-07-30 23:07:56,493
2025-07-30 23:07:56,458
2025-07-30 23:07:56,506
2025-07-30 23:07:56,501
2025-07-30 23:07:56,459
2025-07-30 23:07:56,487
2025-07-30 23:07:56,514
2025-07-30 23:07:56,481
2025-07-30 23:07:56,472
2025-07-30 23:07:56,502
2025-07-30 23:07:56,475
2025-07-30 23:07:56,470
2025-07-30 23:07:56,512
2025-07-30 23:07:56,485
2025-07-30 23:07:56,463
2025-07-30 23:07:56,515
2025-07-30 23:07:56,507
2025-07-30 23:07:56,474
2025-07-30 23:07:56,493
2025-07-30 23:07:56,493
2025-07-30 23:07:56,460
2025-07-30 23:07:56,490
2025-07-30 23:07:56,510
2025-07-30 23:07:56,467
2025-07-30 23:07:56,482
2025-07-30 23:07:56,519
2025-07-30 23:07:56,487
2025-07-30 23:07:56,483
2025-07-30 23:07:56,511
2025-07-30 23:07:56,491
2025-07-30 23:07:56,477
2025-07-30 23:07:56,516
2025-07-30 23:07:56,502
2025-07-30 23:07:56,475
2025-07-30 23:07:56,510
2025-07-30 23:07:56,523
2025-07-30 23:07:56,471
2025-07-30 23:07:56,485
2025-07-30 23:07:56,511
2025-07-30 23:07:56,475
2025-07-30 23:07:56,479
2025-07-30 23:07:56,526
2025-07-30 23:07:56,493
2025-07-30 23:07:56,478
2025-07-30 23:07:56,512
2025-07-30 23:07:56,497
2025-07-30 23:07:56,480
2025-07-30 23:07:56,510
2025-07-30 23:07:56,498
2025-07-30 23:07:56,466
2025-07-30 23:07:56,504
2025-07-30 23:07:56,510
2025-07-30 23:07:56,474
2025-07-30 23:07:56,492
2025-07-30 23:07:56,518
2025-07-30 23:07:56,476
2025-07-30 23:07:56,485
2025-07-30 23:07:56,530
2025-07-30 23:07:56,493
2025-07-30 23:07:56,463
2025-07-30 23:07:56,507
2025-07-30 23:07:56,490
2025-07-30 23:07:56,468
2025-07-30 23:07:56,517
2025-07-30 23:07:56,522
2025-07-30 23:07:56,463
2025-07-30 23:07:56,490
2025-07-30 23:07:56,501
2025-07-30 23:07:56,460
2025-07-30 23:07:56,486
2025-07-30 23:07:56,513
2025-07-30 23:07:56,474
2025-07-30 23:07:56,479
2025-07-30 23:07:56,518
2025-07-30 23:07:56,483
2025-07-30 23:07:56,472
2025-07-30 23:07:56,514
2025-07-30 23:07:56,500
2025-07-30 23:07:56,485
2025-07-30 23:07:56,506
2025-07-30 23:07:56,494
2025-07-30 23:07:56,456
2025-07-30 23:07:56,484
2025-07-30 23:07:56,504
2025-07-30 23:07:56,471
2025-07-30 23:07:56,487
2025-07-30 23:07:56,521
2025-07-30 23:07:56,486
2025-07-30 23:07:56,481
2025-07-30 23:07:56,516
2025-07-30 23:07:56,481
2025-07-30 23:07:56,464
2025-07-30 23:07:56,536
2025-07-30 23:07:56,493
2025-07-30 23:07:56,465
2025-07-30 23:07:56,499
2025-07-30 23:07:56,508
2025-07-30 23:07:56,475
2025-07-30 23:07:56,506
2025-07-30 23:07:56,506
2025-07-30 23:07:56,462
2025-07-30 23:07:56,485
2025-07-30 23:07:56,524
2025-07-30 23:07:56,478
2025-07-30 23:07:56,468
2025-07-30 23:07:56,512
2025-07-30 23:07:56,501
2025-07-30 23:07:56,471
2025-07-30 23:07:56,505
2025-07-30 23:07:56,496
2025-07-30 23:07:56,471
2025-07-30 23:07:56,515
2025-07-30 23:07:56,522
2025-07-30 23:07:56,467
2025-07-30 23:07:56,495
2025-07-30 23:07:56,520
2025-07-30 23:07:56,480
2025-07-30 23:07:56,491
2025-07-30 23:07:56,518
2025-07-30 23:07:56,480
2025-07-30 23:07:56,475
2025-07-30 23:07:56,513
2025-07-30 23:07:56,495
2025-07-30 23:07:56,477
2025-07-30 23:07:57,517
2025-07-30 23:07:57,505
2025-07-30 23:07:57,472
2025-07-30 23:07:57,512
2025-07-30 23:07:57,508
2025-07-30 23:07:57,469
2025-07-30 23:07:57,503
2025-07-30 23:07:57,517
2025-07-30 23:07:57,469
2025-07-30 23:07:57,480
2025-07-30 23:07:57,520
2025-07-30 23:07:57,485
2025-07-30 23:07:57,485
2025-07-30 23:07:57,510
2025-07-30 23:07:57,490
2025-07-30 23:07:57,472
2025-07-30 23:07:57,511
2025-07-30 23:07:57,499
2025-07-30 23:07:57,470
2025-07-30 23:07:57,528
2025-07-30 23:07:57,512
2025-07-30 23:07:57,455
2025-07-30 23:07:57,490
2025-07-30 23:07:57,512
2025-07-30 23:07:57,478
2025-07-30 23:07:57,497
2025-07-30 23:07:57,515
2025-07-30 23:07:57,476
2025-07-30 23:07:57,472
2025-07-30 23:07:57,516
2025-07-30 23:07:57,493
2025-07-30 23:07:57,462
2025-07-30 23:07:57,506
2025-07-30 23:07:57,503
2025-07-30 23:07:57,471
2025-07-30 23:07:57,506
2025-07-30 23:07:57,517
2025-07-30 23:07:57,478
2025-07-30 23:07:57,491
2025-07-30 23:07:57,517
2025-07-30 23:07:57,485
2025-07-30 23:07:57,500
2025-07-30 23:07:57,518
2025-07-30 23:07:57,477
2025-07-30 23:07:57,473
2025-07-30 23:07:57,515
2025-07-30 23:07:57,486
2025-07-30 23:07:57,462
2025-07-30 23:07:57,508
2025-07-30 23:07:57,509
2025-07-30 23:07:57,474
2025-07-30 23:07:57,506
2025-07-30 23:07:57,515
2025-07-30 23:07:57,477
2025-07-30 23:07:57,502
2025-07-30 23:07:57,526
2025-07-30 23:07:57,504
2025-07-30 23:07:57,488
2025-07-30 23:07:57,509
2025-07-30 23:07:57,479
2025-07-30 23:07:57,469
2025-07-30 23:07:57,517
2025-07-30 23:07:57,498
2025-07-30 23:07:57,472
2025-07-30 23:07:57,518
2025-07-30 23:07:57,513
2025-07-30 23:07:57,477
2025-07-30 23:07:57,509
2025-07-30 23:07:57,523
2025-07-30 23:07:57,476
2025-07-30 23:07:57,489
2025-07-30 23:07:57,516
2025-07-30 23:07:57,495
2025-07-30 23:07:57,483
2025-07-30 23:07:57,509
2025-07-30 23:07:57,480
2025-07-30 23:07:57,477
2025-07-30 23:07:57,513
2025-07-30 23:07:57,493
2025-07-30 23:07:57,476
2025-07-30 23:07:57,526
2025-07-30 23:07:57,489
2025-07-30 23:07:57,452
2025-07-30 23:07:57,493
2025-07-30 23:07:57,520
2025-07-30 23:07:57,477
2025-07-30 23:07:57,480
2025-07-30 23:07:57,514
2025-07-30 23:07:57,469
2025-07-30 23:07:57,484
2025-07-30 23:07:57,532
2025-07-30 23:07:57,486
2025-07-30 23:07:57,484
2025-07-30 23:07:57,510
2025-07-30 23:07:57,491
2025-07-30 23:07:57,474
2025-07-30 23:07:57,509
2025-07-30 23:07:57,521
2025-07-30 23:07:57,475
2025-07-30 23:07:57,516
2025-07-30 23:07:57,517
2025-07-30 23:07:57,474
2025-07-30 23:07:57,499
2025-07-30 23:07:57,536
2025-07-30 23:07:57,482
2025-07-30 23:07:57,475
2025-07-30 23:07:57,522
2025-07-30 23:07:57,496
2025-07-30 23:07:57,498
2025-07-30 23:07:57,520
2025-07-30 23:07:57,504
2025-07-30 23:07:57,481
2025-07-30 23:07:57,521
2025-07-30 23:07:57,515
2025-07-30 23:07:57,472
2025-07-30 23:07:57,503
2025-07-30 23:07:57,518
2025-07-30 23:07:57,475
2025-07-30 23:07:57,496
2025-07-30 23:07:57,524
2025-07-30 23:07:57,494
2025-07-30 23:07:57,505
2025-07-30 23:07:57,534
2025-07-30 23:07:57,493
2025-07-30 23:07:57,476
2025-07-30 23:07:57,522
2025-07-30 23:07:57,511
2025-07-30 23:07:57,472
2025-07-30 23:07:57,515
2025-07-30 23:07:57,506
2025-07-30 23:07:57,469
2025-07-30 23:07:57,509
2025-07-30 23:07:57,528
2025-07-30 23:07:57,484
2025-07-30 23:07:57,494
2025-07-30 23:07:57,526
2025-07-30 23:07:57,509
2025-07-30 23:07:57,497
2025-07-30 23:07:57,518
2025-07-30 23:07:57,494
2025-07-30 23:07:57,475
2025-07-30 23:07:57,523
2025-07-30 23:07:57,526
2025-07-30 23:07:57,480
2025-07-30 23:07:57,518
2025-07-30 23:07:57,516
2025-07-30 23:07:57,480
2025-07-30 23:07:57,513
2025-07-30 23:07:57,532
2025-07-30 23:07:57,490
2025-07-30 23:07:57,503
2025-07-30 23:07:57,529
2025-07-30 23:07:57,499
2025-07-30 23:07:57,503
2025-07-30 23:07:57,536
2025-07-30 23:07:57,500
2025-07-30 23:07:57,480
2025-07-30 23:07:57,520
2025-07-30 23:07:57,523
2025-07-30 23:07:57,482
2025-07-30 23:07:57,517
2025-07-30 23:07:57,522
2025-07-30 23:07:57,479
2025-07-30 23:07:57,502
2025-07-30 23:07:57,535
2025-07-30 23:07:57,487
2025-07-30 23:07:57,495
2025-07-30 23:07:57,522
2025-07-30 23:07:57,497
2025-07-30 23:07:57,507
2025-07-30 23:07:57,522
2025-07-30 23:07:57,500
2025-07-30 23:07:57,481
2025-07-30 23:07:57,522
2025-07-30 23:07:57,511
2025-07-30 23:07:57,485
2025-07-30 23:07:57,515
2025-07-30 23:07:57,521
2025-07-30 23:07:57,485
2025-07-30 23:07:57,498
2025-07-30 23:07:57,520
2025-07-30 23:07:57,492
2025-07-30 23:07:57,496
2025-07-30 23:07:57,523
2025-07-30 23:07:57,477
2025-07-30 23:07:57,487
2025-07-30 23:07:57,540
2025-07-30 23:07:57,506
2025-07-30 23:07:57,489
2025-07-30 23:07:57,522
2025-07-30 23:07:57,515
2025-07-30 23:07:57,482
2025-07-30 23:07:57,527
2025-07-30 23:07:57,525
2025-07-30 23:07:58,475
2025-07-30 23:07:58,496
2025-07-30 23:07:58,524
2025-07-30 23:07:58,492
2025-07-30 23:07:58,489
2025-07-30 23:07:58,524
2025-07-30 23:07:58,499
2025-07-30 23:07:58,485
2025-07-30 23:07:58,532
2025-07-30 23:07:58,499
2025-07-30 23:07:58,473
2025-07-30 23:07:58,515
2025-07-30 23:07:58,514
2025-07-30 23:07:58,482
2025-07-30 23:07:58,509
2025-07-30 23:07:58,525
2025-07-30 23:07:58,475
2025-07-30 23:07:58,497
2025-07-30 23:07:58,522
2025-07-30 23:07:58,495
2025-07-30 23:07:58,493
2025-07-30 23:07:58,521
2025-07-30 23:07:58,488
2025-07-30 23:07:58,482
2025-07-30 23:07:58,541
2025-07-30 23:07:58,500
2025-07-30 23:07:58,467
2025-07-30 23:07:58,507
2025-07-30 23:07:58,508
2025-07-30 23:07:58,471
2025-07-30 23:07:58,509
2025-07-30 23:07:58,528
2025-07-30 23:07:58,470
2025-07-30 23:07:58,490
2025-07-30 23:07:58,522
2025-07-30 23:07:58,488
2025-07-30 23:07:58,483
2025-07-30 23:07:58,520
2025-07-30 23:07:58,487
2025-07-30 23:07:58,472
2025-07-30 23:07:58,507
2025-07-30 23:07:58,489
2025-07-30 23:07:58,471
2025-07-30 23:07:58,512
2025-07-30 23:07:58,498
2025-07-30 23:07:58,451
2025-07-30 23:07:58,507
2025-07-30 23:07:58,523
2025-07-30 23:07:58,480
2025-07-30 23:07:58,487
2025-07-30 23:07:58,513
2025-07-30 23:07:58,470
2025-07-30 23:07:58,472
2025-07-30 23:07:58,510
2025-07-30 23:07:58,480
2025-07-30 23:07:58,471
2025-07-30 23:07:58,511
2025-07-30 23:07:58,490
2025-07-30 23:07:58,463
2025-07-30 23:07:58,502
2025-07-30 23:07:58,504
2025-07-30 23:07:58,464
2025-07-30 23:07:58,499
2025-07-30 23:07:58,514
2025-07-30 23:07:58,473
2025-07-30 23:07:58,493
2025-07-30 23:07:58,514
2025-07-30 23:07:58,473
2025-07-30 23:07:58,486
2025-07-30 23:07:58,515
2025-07-30 23:07:58,491
2025-07-30 23:07:58,470
2025-07-30 23:07:58,508
2025-07-30 23:07:58,492
2025-07-30 23:07:58,456
2025-07-30 23:07:58,508
2025-07-30 23:07:58,510
2025-07-30 23:07:58,474
2025-07-30 23:07:58,501
2025-07-30 23:07:58,511
2025-07-30 23:07:58,469
2025-07-30 23:07:58,496
2025-07-30 23:07:58,523
2025-07-30 23:07:58,487
2025-07-30 23:07:58,475
2025-07-30 23:07:58,518
2025-07-30 23:07:58,494
2025-07-30 23:07:58,462
2025-07-30 23:07:58,518
2025-07-30 23:07:58,498
2025-07-30 23:07:58,461
2025-07-30 23:07:58,505
2025-07-30 23:07:58,498
2025-07-30 23:07:58,465
2025-07-30 23:07:58,499
2025-07-30 23:07:58,520
2025-07-30 23:07:58,477
2025-07-30 23:07:58,501
2025-07-30 23:07:58,522
2025-07-30 23:07:58,484
2025-07-30 23:07:58,474
2025-07-30 23:07:58,528
2025-07-30 23:07:58,496
2025-07-30 23:07:58,467
2025-07-30 23:07:58,504
2025-07-30 23:07:58,495
2025-07-30 23:07:58,468
2025-07-30 23:07:58,507
2025-07-30 23:07:58,510
2025-07-30 23:07:58,466
2025-07-30 23:07:58,489
2025-07-30 23:07:58,514
2025-07-30 23:07:58,477
2025-07-30 23:07:58,488
2025-07-30 23:07:58,518
2025-07-30 23:07:58,478
2025-07-30 23:07:58,490
2025-07-30 23:07:58,537
2025-07-30 23:07:58,488
2025-07-30 23:07:58,462
2025-07-30 23:07:58,509
2025-07-30 23:07:58,499
2025-07-30 23:07:58,467
2025-07-30 23:07:58,513
2025-07-30 23:07:58,512
2025-07-30 23:07:58,469
2025-07-30 23:07:58,492
2025-07-30 23:07:58,514
2025-07-30 23:07:58,488
2025-07-30 23:07:58,495
2025-07-30 23:07:58,519
2025-07-30 23:07:58,484
2025-07-30 23:07:58,479
2025-07-30 23:07:58,525
2025-07-30 23:07:58,494
2025-07-30 23:07:58,478
2025-07-30 23:07:58,518
2025-07-30 23:07:58,506
2025-07-30 23:07:58,472
2025-07-30 23:07:58,511
2025-07-30 23:07:58,530
2025-07-30 23:07:58,470
2025-07-30 23:07:58,498
2025-07-30 23:07:58,527
2025-07-30 23:07:58,487
2025-07-30 23:07:58,490
2025-07-30 23:07:58,524
2025-07-30 23:07:58,490
2025-07-30 23:07:58,482
2025-07-30 23:07:58,526
2025-07-30 23:07:58,502
2025-07-30 23:07:58,478
2025-07-30 23:07:58,516
2025-07-30 23:07:58,500
2025-07-30 23:07:58,476
2025-07-30 23:07:58,520
2025-07-30 23:07:58,528
2025-07-30 23:07:58,470
2025-07-30 23:07:58,496
2025-07-30 23:07:58,525
2025-07-30 23:07:58,479
2025-07-30 23:07:58,487
2025-07-30 23:07:58,521
2025-07-30 23:07:58,485
2025-07-30 23:07:58,483
2025-07-30 23:07:58,521
2025-07-30 23:07:58,502
2025-07-30 23:07:58,476
2025-07-30 23:07:58,521
2025-07-30 23:07:58,519
2025-07-30 23:07:58,473
2025-07-30 23:07:58,502
2025-07-30 23:07:58,521
2025-07-30 23:07:58,477
2025-07-30 23:07:58,499
2025-07-30 23:07:58,521
2025-07-30 23:07:58,479
2025-07-30 23:07:58,485
2025-07-30 23:07:58,521
2025-07-30 23:07:58,496
2025-07-30 23:07:58,486
2025-07-30 23:07:58,521
2025-07-30 23:07:58,504
2025-07-30 23:07:58,477
2025-07-30 23:07:58,522
2025-07-30 23:07:58,518
2025-07-30 23:07:58,473
2025-07-30 23:07:58,502
2025-07-30 23:07:58,528
2025-07-30 23:07:58,498
2025-07-30 23:07:59,493
2025-07-30 23:07:59,513
2025-07-30 23:07:59,480
2025-07-30 23:07:59,490
2025-07-30 23:07:59,523
2025-07-30 23:07:59,495
2025-07-30 23:07:59,484
2025-07-30 23:07:59,524
2025-07-30 23:07:59,508
2025-07-30 23:07:59,482
2025-07-30 23:07:59,523
2025-07-30 23:07:59,514
2025-07-30 23:07:59,477
2025-07-30 23:07:59,529
2025-07-30 23:07:59,517
2025-07-30 23:07:59,477
2025-07-30 23:07:59,499
2025-07-30 23:07:59,525
2025-07-30 23:07:59,487
2025-07-30 23:07:59,502
2025-07-30 23:07:59,522
2025-07-30 23:07:59,496
2025-07-30 23:07:59,488
2025-07-30 23:07:59,531
2025-07-30 23:07:59,514
2025-07-30 23:07:59,485
2025-07-30 23:07:59,526
2025-07-30 23:07:59,524
2025-07-30 23:07:59,480
2025-07-30 23:07:59,511
2025-07-30 23:07:59,530
2025-07-30 23:07:59,487
2025-07-30 23:07:59,503
2025-07-30 23:07:59,538
2025-07-30 23:07:59,501
2025-07-30 23:07:59,491
2025-07-30 23:07:59,532
2025-07-30 23:07:59,509
2025-07-30 23:07:59,491
2025-07-30 23:07:59,529
2025-07-30 23:07:59,511
2025-07-30 23:07:59,484
2025-07-30 23:07:59,531
2025-07-30 23:07:59,537
2025-07-30 23:07:59,485
2025-07-30 23:07:59,510
2025-07-30 23:07:59,529
2025-07-30 23:07:59,492
2025-07-30 23:07:59,494
2025-07-30 23:07:59,552
2025-07-30 23:07:59,511
2025-07-30 23:07:59,498
2025-07-30 23:07:59,530
2025-07-30 23:07:59,514
2025-07-30 23:07:59,486
2025-07-30 23:07:59,528
2025-07-30 23:07:59,520
2025-07-30 23:07:59,488
2025-07-30 23:07:59,529
2025-07-30 23:07:59,533
2025-07-30 23:07:59,487
2025-07-30 23:07:59,511
2025-07-30 23:07:59,540
2025-07-30 23:07:59,500
2025-07-30 23:07:59,506
2025-07-30 23:07:59,540
2025-07-30 23:07:59,513
2025-07-30 23:07:59,507
2025-07-30 23:07:59,538
2025-07-30 23:07:59,514
2025-07-30 23:07:59,499
2025-07-30 23:07:59,537
2025-07-30 23:07:59,519
2025-07-30 23:07:59,491
2025-07-30 23:07:59,530
2025-07-30 23:07:59,533
2025-07-30 23:07:59,493
2025-07-30 23:07:59,529
2025-07-30 23:07:59,538
2025-07-30 23:07:59,498
2025-07-30 23:07:59,513
2025-07-30 23:07:59,553
2025-07-30 23:07:59,510
2025-07-30 23:07:59,503
2025-07-30 23:07:59,534
2025-07-30 23:07:59,514
2025-07-30 23:07:59,492
2025-07-30 23:07:59,538
2025-07-30 23:07:59,525
2025-07-30 23:07:59,491
2025-07-30 23:07:59,528
2025-07-30 23:07:59,541
2025-07-30 23:07:59,496
2025-07-30 23:07:59,519
2025-07-30 23:07:59,545
2025-07-30 23:07:59,507
2025-07-30 23:07:59,521
2025-07-30 23:07:59,553
2025-07-30 23:07:59,533
2025-07-30 23:07:59,507
2025-07-30 23:07:59,551
2025-07-30 23:07:59,515
2025-07-30 23:07:59,500
2025-07-30 23:07:59,539
2025-07-30 23:07:59,526
2025-07-30 23:07:59,490
2025-07-30 23:07:59,532
2025-07-30 23:07:59,547
2025-07-30 23:07:59,499
2025-07-30 23:07:59,524
2025-07-30 23:07:59,548
2025-07-30 23:07:59,511
2025-07-30 23:07:59,517
2025-07-30 23:07:59,565
2025-07-30 23:07:59,522
2025-07-30 23:07:59,500
2025-07-30 23:07:59,551
2025-07-30 23:07:59,520
2025-07-30 23:07:59,508
2025-07-30 23:07:59,550
2025-07-30 23:07:59,531
2025-07-30 23:07:59,491
2025-07-30 23:07:59,529
2025-07-30 23:07:59,539
2025-07-30 23:07:59,499
2025-07-30 23:07:59,520
2025-07-30 23:07:59,552
2025-07-30 23:07:59,515
2025-07-30 23:07:59,514
2025-07-30 23:07:59,547
2025-07-30 23:07:59,532
2025-07-30 23:07:59,514
2025-07-30 23:07:59,541
2025-07-30 23:07:59,527
2025-07-30 23:07:59,503
2025-07-30 23:07:59,540
2025-07-30 23:07:59,539
2025-07-30 23:07:59,491
2025-07-30 23:07:59,526
2025-07-30 23:07:59,541
2025-07-30 23:07:59,511
2025-07-30 23:07:59,523
2025-07-30 23:07:59,551
2025-07-30 23:07:59,509
2025-07-30 23:07:59,512
2025-07-30 23:07:59,549
2025-07-30 23:07:59,519
2025-07-30 23:07:59,507
2025-07-30 23:07:59,551
2025-07-30 23:07:59,540
2025-07-30 23:07:59,494
2025-07-30 23:07:59,544
2025-07-30 23:07:59,547
2025-07-30 23:07:59,503
2025-07-30 23:07:59,527
2025-07-30 23:07:59,537
2025-07-30 23:07:59,497
2025-07-30 23:07:59,519
2025-07-30 23:07:59,542
2025-07-30 23:07:59,502
2025-07-30 23:07:59,511
2025-07-30 23:07:59,550
2025-07-30 23:07:59,513
2025-07-30 23:07:59,507
2025-07-30 23:07:59,546
2025-07-30 23:07:59,528
2025-07-30 23:07:59,494
2025-07-30 23:07:59,546
2025-07-30 23:07:59,541
2025-07-30 23:07:59,502
2025-07-30 23:07:59,543
2025-07-30 23:07:59,542
2025-07-30 23:07:59,491
2025-07-30 23:07:59,515
2025-07-30 23:07:59,547
2025-07-30 23:07:59,520
2025-07-30 23:07:59,526
2025-07-30 23:07:59,554
2025-07-30 23:07:59,523
2025-07-30 23:07:59,504
2025-07-30 23:07:59,545
2025-07-30 23:07:59,531
2025-07-30 23:07:59,501
2025-07-30 23:07:59,550
2025-07-30 23:07:59,543
2025-07-30 23:07:59,513
2025-07-30 23:07:59,540
2025-07-30 23:07:59,545
2025-07-30 23:07:59,502
2025-07-30 23:07:59,513
2025-07-30 23:07:59,552
2025-07-30 23:07:59,511
2025-07-30 23:07:59,515
2025-07-30 23:07:59,551
2025-07-30 23:08:00,521
2025-07-30 23:08:00,514
2025-07-30 23:08:00,559
2025-07-30 23:08:00,539
2025-07-30 23:08:00,493
2025-07-30 23:08:00,540
2025-07-30 23:08:00,549
2025-07-30 23:08:00,510
2025-07-30 23:08:00,539
2025-07-30 23:08:00,568
2025-07-30 23:08:00,501
2025-07-30 23:08:00,514
2025-07-30 23:08:00,552
2025-07-30 23:08:00,521
2025-07-30 23:08:00,515
2025-07-30 23:08:00,555
2025-07-30 23:08:00,529
2025-07-30 23:08:00,512
2025-07-30 23:08:00,554
2025-07-30 23:08:00,543
2025-07-30 23:08:00,505
2025-07-30 23:08:00,558
2025-07-30 23:08:00,551
2025-07-30 23:08:00,501
2025-07-30 23:08:00,534
2025-07-30 23:08:00,553
2025-07-30 23:08:00,518
2025-07-30 23:08:00,529
2025-07-30 23:08:00,551
2025-07-30 23:08:00,529
2025-07-30 23:08:00,516
2025-07-30 23:08:00,550
2025-07-30 23:08:00,531
2025-07-30 23:08:00,509
2025-07-30 23:08:00,551
2025-07-30 23:08:00,543
2025-07-30 23:08:00,508
2025-07-30 23:08:00,541
2025-07-30 23:08:00,554
2025-07-30 23:08:00,499
2025-07-30 23:08:00,542
2025-07-30 23:08:00,571
2025-07-30 23:08:00,502
2025-07-30 23:08:00,509
2025-07-30 23:08:00,555
2025-07-30 23:08:00,523
2025-07-30 23:08:00,511
2025-07-30 23:08:00,549
2025-07-30 23:08:00,532
2025-07-30 23:08:00,516
2025-07-30 23:08:00,552
2025-07-30 23:08:00,537
2025-07-30 23:08:00,506
2025-07-30 23:08:00,537
2025-07-30 23:08:00,544
2025-07-30 23:08:00,506
2025-07-30 23:08:00,535
2025-07-30 23:08:00,560
2025-07-30 23:08:00,526
2025-07-30 23:08:00,523
2025-07-30 23:08:00,563
2025-07-30 23:08:00,523
2025-07-30 23:08:00,517
2025-07-30 23:08:00,553
2025-07-30 23:08:00,533
2025-07-30 23:08:00,503
2025-07-30 23:08:00,546
2025-07-30 23:08:00,544
2025-07-30 23:08:00,509
2025-07-30 23:08:00,543
2025-07-30 23:08:00,551
2025-07-30 23:08:00,512
2025-07-30 23:08:00,530
2025-07-30 23:08:00,550
2025-07-30 23:08:00,530
2025-07-30 23:08:00,529
2025-07-30 23:08:00,563
2025-07-30 23:08:00,520
2025-07-30 23:08:00,522
2025-07-30 23:08:00,557
2025-07-30 23:08:00,534
2025-07-30 23:08:00,507
2025-07-30 23:08:00,548
2025-07-30 23:08:00,540
2025-07-30 23:08:00,506
2025-07-30 23:08:00,538
2025-07-30 23:08:00,554
2025-07-30 23:08:00,515
2025-07-30 23:08:00,529
2025-07-30 23:08:00,547
2025-07-30 23:08:00,524
2025-07-30 23:08:00,530
2025-07-30 23:08:00,560
2025-07-30 23:08:00,524
2025-07-30 23:08:00,516
2025-07-30 23:08:00,554
2025-07-30 23:08:00,531
2025-07-30 23:08:00,501
2025-07-30 23:08:00,551
2025-07-30 23:08:00,537
2025-07-30 23:08:00,504
2025-07-30 23:08:00,544
2025-07-30 23:08:00,558
2025-07-30 23:08:00,516
2025-07-30 23:08:00,535
2025-07-30 23:08:00,564
2025-07-30 23:08:00,522
2025-07-30 23:08:00,530
2025-07-30 23:08:00,572
2025-07-30 23:08:00,532
2025-07-30 23:08:00,504
2025-07-30 23:08:00,546
2025-07-30 23:08:00,535
2025-07-30 23:08:00,509
2025-07-30 23:08:00,544
2025-07-30 23:08:00,544
2025-07-30 23:08:00,505
2025-07-30 23:08:00,538
2025-07-30 23:08:00,555
2025-07-30 23:08:00,516
2025-07-30 23:08:00,532
2025-07-30 23:08:00,556
2025-07-30 23:08:00,523
2025-07-30 23:08:00,531
2025-07-30 23:08:00,560
2025-07-30 23:08:00,532
2025-07-30 23:08:00,507
2025-07-30 23:08:00,562
2025-07-30 23:08:00,541
2025-07-30 23:08:00,504
2025-07-30 23:08:00,539
2025-07-30 23:08:00,540
2025-07-30 23:08:00,509
2025-07-30 23:08:00,538
2025-07-30 23:08:00,553
2025-07-30 23:08:00,520
2025-07-30 23:08:00,526
2025-07-30 23:08:00,554
2025-07-30 23:08:00,529
2025-07-30 23:08:00,521
2025-07-30 23:08:00,562
2025-07-30 23:08:00,534
2025-07-30 23:08:00,509
2025-07-30 23:08:00,554
2025-07-30 23:08:00,552
2025-07-30 23:08:00,509
2025-07-30 23:08:00,545
2025-07-30 23:08:00,548
2025-07-30 23:08:00,512
2025-07-30 23:08:00,542
2025-07-30 23:08:00,571
2025-07-30 23:08:00,517
2025-07-30 23:08:00,532
2025-07-30 23:08:00,569
2025-07-30 23:08:00,507
2025-07-30 23:08:00,513
2025-07-30 23:08:00,562
2025-07-30 23:08:00,529
2025-07-30 23:08:00,511
2025-07-30 23:08:00,567
2025-07-30 23:08:00,552
2025-07-30 23:08:00,527
2025-07-30 23:08:00,552
2025-07-30 23:08:00,554
2025-07-30 23:08:00,515
2025-07-30 23:08:00,548
2025-07-30 23:08:00,553
2025-07-30 23:08:00,535
2025-07-30 23:08:00,524
2025-07-30 23:08:00,555
2025-07-30 23:08:00,524
2025-07-30 23:08:00,520
2025-07-30 23:08:00,555
2025-07-30 23:08:00,542
2025-07-30 23:08:00,525
2025-07-30 23:08:00,552
2025-07-30 23:08:00,543
2025-07-30 23:08:00,508
2025-07-30 23:08:00,549
2025-07-30 23:08:00,558
2025-07-30 23:08:00,513
2025-07-30 23:08:00,540
2025-07-30 23:08:00,559
2025-07-30 23:08:00,512
2025-07-30 23:08:00,528
2025-07-30 23:08:00,555
2025-07-30 23:08:00,523
2025-07-30 23:08:00,516
2025-07-30 23:08:00,559
2025-07-30 23:08:00,530
2025-07-30 23:08:00,511
2025-07-30 23:08:00,552
2025-07-30 23:08:00,547
2025-07-30 23:08:01,512
2025-07-30 23:08:01,549
2025-07-30 23:08:01,570
2025-07-30 23:08:01,506
2025-07-30 23:08:01,528
2025-07-30 23:08:01,550
2025-07-30 23:08:01,513
2025-07-30 23:08:01,541
2025-07-30 23:08:01,577
2025-07-30 23:08:01,519
2025-07-30 23:08:01,507
2025-07-30 23:08:01,556
2025-07-30 23:08:01,534
2025-07-30 23:08:01,514
2025-07-30 23:08:01,544
2025-07-30 23:08:01,536
2025-07-30 23:08:01,519
2025-07-30 23:08:01,564
2025-07-30 23:08:01,552
2025-07-30 23:08:01,506
2025-07-30 23:08:01,536
2025-07-30 23:08:01,549
2025-07-30 23:08:01,506
2025-07-30 23:08:01,520
2025-07-30 23:08:01,556
2025-07-30 23:08:01,525
2025-07-30 23:08:01,517
2025-07-30 23:08:01,559
2025-07-30 23:08:01,524
2025-07-30 23:08:01,519
2025-07-30 23:08:01,553
2025-07-30 23:08:01,546
2025-07-30 23:08:01,515
2025-07-30 23:08:01,546
2025-07-30 23:08:01,548
2025-07-30 23:08:01,517
2025-07-30 23:08:01,525
2025-07-30 23:08:01,550
2025-07-30 23:08:01,514
2025-07-30 23:08:01,518
2025-07-30 23:08:01,553
2025-07-30 23:08:01,515
2025-07-30 23:08:01,511
2025-07-30 23:08:01,550
2025-07-30 23:08:01,535
2025-07-30 23:08:01,505
2025-07-30 23:08:01,552
2025-07-30 23:08:01,550
2025-07-30 23:08:01,536
2025-07-30 23:08:01,536
2025-07-30 23:08:01,544
2025-07-30 23:08:01,507
2025-07-30 23:08:01,537
2025-07-30 23:08:01,557
2025-07-30 23:08:01,506
2025-07-30 23:08:01,498
2025-07-30 23:08:01,564
2025-07-30 23:08:01,525
2025-07-30 23:08:01,520
2025-07-30 23:08:01,562
2025-07-30 23:08:01,531
2025-07-30 23:08:01,512
2025-07-30 23:08:01,547
2025-07-30 23:08:01,555
2025-07-30 23:08:01,502
2025-07-30 23:08:01,540
2025-07-30 23:08:01,559
2025-07-30 23:08:01,521
2025-07-30 23:08:01,531
2025-07-30 23:08:01,567
2025-07-30 23:08:01,524
2025-07-30 23:08:01,508
2025-07-30 23:08:01,547
2025-07-30 23:08:01,522
2025-07-30 23:08:01,517
2025-07-30 23:08:01,557
2025-07-30 23:08:01,543
2025-07-30 23:08:01,514
2025-07-30 23:08:01,548
2025-07-30 23:08:01,538
2025-07-30 23:08:01,530
2025-07-30 23:08:01,545
2025-07-30 23:08:01,548
2025-07-30 23:08:01,504
2025-07-30 23:08:01,522
2025-07-30 23:08:01,556
2025-07-30 23:08:01,522
2025-07-30 23:08:01,519
2025-07-30 23:08:01,562
2025-07-30 23:08:01,535
2025-07-30 23:08:01,505
2025-07-30 23:08:01,548
2025-07-30 23:08:01,526
2025-07-30 23:08:01,509
2025-07-30 23:08:01,562
2025-07-30 23:08:01,581
2025-07-30 23:08:01,535
2025-07-30 23:08:01,547
2025-07-30 23:08:01,555
2025-07-30 23:08:01,513
2025-07-30 23:08:01,535
2025-07-30 23:08:01,577
2025-07-30 23:08:01,541
2025-07-30 23:08:01,532
2025-07-30 23:08:01,566
2025-07-30 23:08:01,540
2025-07-30 23:08:01,525
2025-07-30 23:08:01,575
2025-07-30 23:08:01,555
2025-07-30 23:08:01,528
2025-07-30 23:08:01,560
2025-07-30 23:08:01,559
2025-07-30 23:08:01,530
2025-07-30 23:08:01,546
2025-07-30 23:08:01,563
2025-07-30 23:08:01,515
2025-07-30 23:08:01,526
2025-07-30 23:08:01,562
2025-07-30 23:08:01,531
2025-07-30 23:08:01,527
2025-07-30 23:08:01,556
2025-07-30 23:08:01,540
2025-07-30 23:08:01,521
2025-07-30 23:08:01,558
2025-07-30 23:08:01,553
2025-07-30 23:08:01,517
2025-07-30 23:08:01,549
2025-07-30 23:08:01,557
2025-07-30 23:08:01,514
2025-07-30 23:08:01,527
2025-07-30 23:08:01,552
2025-07-30 23:08:01,546
2025-07-30 23:08:01,543
2025-07-30 23:08:01,560
2025-07-30 23:08:01,515
2025-07-30 23:08:01,507
2025-07-30 23:08:01,560
2025-07-30 23:08:01,526
2025-07-30 23:08:01,509
2025-07-30 23:08:01,556
2025-07-30 23:08:01,541
2025-07-30 23:08:01,500
2025-07-30 23:08:01,543
2025-07-30 23:08:01,567
2025-07-30 23:08:01,512
2025-07-30 23:08:01,527
2025-07-30 23:08:01,548
2025-07-30 23:08:01,509
2025-07-30 23:08:01,530
2025-07-30 23:08:01,547
2025-07-30 23:08:01,509
2025-07-30 23:08:01,505
2025-07-30 23:08:01,555
2025-07-30 23:08:01,532
2025-07-30 23:08:01,506
2025-07-30 23:08:01,546
2025-07-30 23:08:01,540
2025-07-30 23:08:01,502
2025-07-30 23:08:01,553
2025-07-30 23:08:01,553
2025-07-30 23:08:01,502
2025-07-30 23:08:01,528
2025-07-30 23:08:01,540
2025-07-30 23:08:01,499
2025-07-30 23:08:01,514
2025-07-30 23:08:01,545
2025-07-30 23:08:01,506
2025-07-30 23:08:01,521
2025-07-30 23:08:01,547
2025-07-30 23:08:01,530
2025-07-30 23:08:01,497
2025-07-30 23:08:01,538
2025-07-30 23:08:01,537
2025-07-30 23:08:01,514
2025-07-30 23:08:01,534
2025-07-30 23:08:01,552
2025-07-30 23:08:01,494
2025-07-30 23:08:01,521
2025-07-30 23:08:01,542
2025-07-30 23:08:01,505
2025-07-30 23:08:01,509
2025-07-30 23:08:01,549
2025-07-30 23:08:01,519
2025-07-30 23:08:01,501
2025-07-30 23:08:01,537
2025-07-30 23:08:01,521
2025-07-30 23:08:01,494
2025-07-30 23:08:01,537
2025-07-30 23:08:01,542
2025-07-30 23:08:01,502
2025-07-30 23:08:01,524
2025-07-30 23:08:02,530
2025-07-30 23:08:02,491
2025-07-30 23:08:02,519
2025-07-30 23:08:02,547
2025-07-30 23:08:02,503
2025-07-30 23:08:02,502
2025-07-30 23:08:02,547
2025-07-30 23:08:02,524
2025-07-30 23:08:02,508
2025-07-30 23:08:02,534
2025-07-30 23:08:02,521
2025-07-30 23:08:02,492
2025-07-30 23:08:02,542
2025-07-30 23:08:02,530
2025-07-30 23:08:02,503
2025-07-30 23:08:02,518
2025-07-30 23:08:02,534
2025-07-30 23:08:02,490
2025-07-30 23:08:02,513
2025-07-30 23:08:02,538
2025-07-30 23:08:02,499
2025-07-30 23:08:02,502
2025-07-30 23:08:02,540
2025-07-30 23:08:02,514
2025-07-30 23:08:02,495
2025-07-30 23:08:02,532
2025-07-30 23:08:02,532
2025-07-30 23:08:02,500
2025-07-30 23:08:02,535
2025-07-30 23:08:02,527
2025-07-30 23:08:02,476
2025-07-30 23:08:02,501
2025-07-30 23:08:02,527
2025-07-30 23:08:02,484
2025-07-30 23:08:02,497
2025-07-30 23:08:02,529
2025-07-30 23:08:02,496
2025-07-30 23:08:02,501
2025-07-30 23:08:02,535
2025-07-30 23:08:02,515
2025-07-30 23:08:02,506
2025-07-30 23:08:02,542
2025-07-30 23:08:02,537
2025-07-30 23:08:02,521
2025-07-30 23:08:02,514
2025-07-30 23:08:02,511
2025-07-30 23:08:02,478
2025-07-30 23:08:02,516
2025-07-30 23:08:02,540
2025-07-30 23:08:02,493
2025-07-30 23:08:02,506
2025-07-30 23:08:02,535
2025-07-30 23:08:02,499
2025-07-30 23:08:02,493
2025-07-30 23:08:02,529
2025-07-30 23:08:02,521
2025-07-30 23:08:02,480
2025-07-30 23:08:02,506
2025-07-30 23:08:02,507
2025-07-30 23:08:02,481
2025-07-30 23:08:02,531
2025-07-30 23:08:02,528
2025-07-30 23:08:02,474
2025-07-30 23:08:02,509
2025-07-30 23:08:02,522
2025-07-30 23:08:02,478
2025-07-30 23:08:02,492
2025-07-30 23:08:02,531
2025-07-30 23:08:02,493
2025-07-30 23:08:02,490
2025-07-30 23:08:02,538
2025-07-30 23:08:02,497
2025-07-30 23:08:02,478
2025-07-30 23:08:02,525
2025-07-30 23:08:02,526
2025-07-30 23:08:02,481
2025-07-30 23:08:02,502
2025-07-30 23:08:02,518
2025-07-30 23:08:02,484
2025-07-30 23:08:02,521
2025-07-30 23:08:02,526
2025-07-30 23:08:02,479
2025-07-30 23:08:02,496
2025-07-30 23:08:02,535
2025-07-30 23:08:02,491
2025-07-30 23:08:02,486
2025-07-30 23:08:02,538
2025-07-30 23:08:02,526
2025-07-30 23:08:02,495
2025-07-30 23:08:02,521
2025-07-30 23:08:02,517
2025-07-30 23:08:02,488
2025-07-30 23:08:02,519
2025-07-30 23:08:02,526
2025-07-30 23:08:02,488
2025-07-30 23:08:02,511
2025-07-30 23:08:02,527
2025-07-30 23:08:02,484
2025-07-30 23:08:02,514
2025-07-30 23:08:02,533
2025-07-30 23:08:02,482
2025-07-30 23:08:02,479
2025-07-30 23:08:02,528
2025-07-30 23:08:02,517
2025-07-30 23:08:02,492
2025-07-30 23:08:02,543
2025-07-30 23:08:02,518
2025-07-30 23:08:02,476
2025-07-30 23:08:02,506
2025-07-30 23:08:02,526
2025-07-30 23:08:02,484
2025-07-30 23:08:02,506
2025-07-30 23:08:02,527
2025-07-30 23:08:02,484
2025-07-30 23:08:02,492
2025-07-30 23:08:02,530
2025-07-30 23:08:02,509
2025-07-30 23:08:02,486
2025-07-30 23:08:02,532
2025-07-30 23:08:02,526
2025-07-30 23:08:02,491
2025-07-30 23:08:02,514
2025-07-30 23:08:02,511
2025-07-30 23:08:02,476
2025-07-30 23:08:02,515
2025-07-30 23:08:02,527
2025-07-30 23:08:02,481
2025-07-30 23:08:02,507
2025-07-30 23:08:02,529
2025-07-30 23:08:02,488
2025-07-30 23:08:02,505
2025-07-30 23:08:02,544
2025-07-30 23:08:02,503
2025-07-30 23:08:02,502
2025-07-30 23:08:02,523
2025-07-30 23:08:02,497
2025-07-30 23:08:02,490
2025-07-30 23:08:02,541
2025-07-30 23:08:02,527
2025-07-30 23:08:02,489
2025-07-30 23:08:02,530
2025-07-30 23:08:02,538
2025-07-30 23:08:02,497
2025-07-30 23:08:02,516
2025-07-30 23:08:02,542
2025-07-30 23:08:02,508
2025-07-30 23:08:02,513
2025-07-30 23:08:02,546
2025-07-30 23:08:02,512
2025-07-30 23:08:02,497
2025-07-30 23:08:02,546
2025-07-30 23:08:02,529
2025-07-30 23:08:02,487
2025-07-30 23:08:02,528
2025-07-30 23:08:02,529
2025-07-30 23:08:02,493
2025-07-30 23:08:02,528
2025-07-30 23:08:02,554
2025-07-30 23:08:02,511
2025-07-30 23:08:02,522
2025-07-30 23:08:02,541
2025-07-30 23:08:02,509
2025-07-30 23:08:02,508
2025-07-30 23:08:02,550
2025-07-30 23:08:02,520
2025-07-30 23:08:02,503
2025-07-30 23:08:02,534
2025-07-30 23:08:02,520
2025-07-30 23:08:02,495
2025-07-30 23:08:02,538
2025-07-30 23:08:02,528
2025-07-30 23:08:02,490
2025-07-30 23:08:02,512
2025-07-30 23:08:02,526
2025-07-30 23:08:02,496
2025-07-30 23:08:02,517
2025-07-30 23:08:02,547
2025-07-30 23:08:02,501
2025-07-30 23:08:02,501
2025-07-30 23:08:02,549
2025-07-30 23:08:02,527
2025-07-30 23:08:02,501
2025-07-30 23:08:02,533
2025-07-30 23:08:02,521
2025-07-30 23:08:02,490
2025-07-30 23:08:02,531
2025-07-30 23:08:02,536
2025-07-30 23:08:02,495
2025-07-30 23:08:02,512
2025-07-30 23:08:02,539
2025-07-30 23:08:02,492
2025-07-30 23:08:02,509
2025-07-30 23:08:02,538
2025-07-30 23:08:02,500
2025-07-30 23:08:03,505
2025-07-30 23:08:03,549
2025-07-30 23:08:03,499
2025-07-30 23:08:03,487
2025-07-30 23:08:03,531
2025-07-30 23:08:03,522
2025-07-30 23:08:03,490
2025-07-30 23:08:03,525
2025-07-30 23:08:03,524
2025-07-30 23:08:03,485
2025-07-30 23:08:03,509
2025-07-30 23:08:03,527
2025-07-30 23:08:03,489
2025-07-30 23:08:03,521
2025-07-30 23:08:03,553
2025-07-30 23:08:03,498
2025-07-30 23:08:03,493
2025-07-30 23:08:03,535
2025-07-30 23:08:03,514
2025-07-30 23:08:03,498
2025-07-30 23:08:03,537
2025-07-30 23:08:03,531
2025-07-30 23:08:03,493
2025-07-30 23:08:03,531
2025-07-30 23:08:03,538
2025-07-30 23:08:03,505
2025-07-30 23:08:03,545
2025-07-30 23:08:03,553
2025-07-30 23:08:03,507
2025-07-30 23:08:03,517
2025-07-30 23:08:03,554
2025-07-30 23:08:03,525
2025-07-30 23:08:03,513
2025-07-30 23:08:03,568
2025-07-30 23:08:03,537
2025-07-30 23:08:03,497
2025-07-30 23:08:03,550
2025-07-30 23:08:03,536
2025-07-30 23:08:03,501
2025-07-30 23:08:03,540
2025-07-30 23:08:03,555
2025-07-30 23:08:03,515
2025-07-30 23:08:03,535
2025-07-30 23:08:03,557
2025-07-30 23:08:03,513
2025-07-30 23:08:03,522
2025-07-30 23:08:03,563
2025-07-30 23:08:03,522
2025-07-30 23:08:03,522
2025-07-30 23:08:03,565
2025-07-30 23:08:03,542
2025-07-30 23:08:03,506
2025-07-30 23:08:03,544
2025-07-30 23:08:03,550
2025-07-30 23:08:03,522
2025-07-30 23:08:03,549
2025-07-30 23:08:03,558
2025-07-30 23:08:03,514
2025-07-30 23:08:03,539
2025-07-30 23:08:03,562
2025-07-30 23:08:03,528
2025-07-30 23:08:03,532
2025-07-30 23:08:03,572
2025-07-30 23:08:03,543
2025-07-30 23:08:03,546
2025-07-30 23:08:03,579
2025-07-30 23:08:03,569
