Timestamp,Valor Analogico
2025-07-30 22:24:57,483
2025-07-30 22:24:57,471
2025-07-30 22:24:57,455
2025-07-30 22:24:57,440
2025-07-30 22:24:57,428
2025-07-30 22:24:57,420
2025-07-30 22:24:57,413
2025-07-30 22:24:57,405
2025-07-30 22:24:57,397
2025-07-30 22:24:57,387
2025-07-30 22:24:57,375
2025-07-30 22:24:57,361
2025-07-30 22:24:57,347
2025-07-30 22:24:57,335
2025-07-30 22:24:57,328
2025-07-30 22:24:57,332
2025-07-30 22:24:57,346
2025-07-30 22:24:57,369
2025-07-30 22:24:57,399
2025-07-30 22:24:57,349
2025-07-30 22:24:57,328
2025-07-30 22:24:57,401
2025-07-30 22:24:57,350
2025-07-30 22:24:57,335
2025-07-30 22:24:57,404
2025-07-30 22:24:57,379
2025-07-30 22:24:57,340
2025-07-30 22:24:57,380
2025-07-30 22:24:57,402
2025-07-30 22:24:57,359
2025-07-30 22:24:57,395
2025-07-30 22:24:57,415
2025-07-30 22:24:57,373
2025-07-30 22:24:57,378
2025-07-30 22:24:57,413
2025-07-30 22:24:57,376
2025-07-30 22:24:57,374
2025-07-30 22:24:57,423
2025-07-30 22:24:57,394
2025-07-30 22:24:57,380
2025-07-30 22:24:57,432
2025-07-30 22:24:57,395
2025-07-30 22:24:57,388
2025-07-30 22:24:57,428
2025-07-30 22:24:57,430
2025-07-30 22:24:57,394
2025-07-30 22:24:57,416
2025-07-30 22:24:57,434
2025-07-30 22:24:57,392
2025-07-30 22:24:57,416
2025-07-30 22:24:57,444
2025-07-30 22:24:57,413
2025-07-30 22:24:57,399
2025-07-30 22:24:57,453
2025-07-30 22:24:57,427
2025-07-30 22:24:57,400
2025-07-30 22:24:57,449
2025-07-30 22:24:57,440
2025-07-30 22:24:57,405
2025-07-30 22:24:57,443
2025-07-30 22:24:57,435
2025-07-30 22:24:57,408
2025-07-30 22:24:57,439
2025-07-30 22:24:57,454
2025-07-30 22:24:57,411
2025-07-30 22:24:57,431
2025-07-30 22:24:57,476
2025-07-30 22:24:57,427
2025-07-30 22:24:57,428
2025-07-30 22:24:57,470
2025-07-30 22:24:57,440
2025-07-30 22:24:57,416
2025-07-30 22:24:57,458
2025-07-30 22:24:57,442
2025-07-30 22:24:57,415
2025-07-30 22:24:57,444
2025-07-30 22:24:57,475
2025-07-30 22:24:57,425
2025-07-30 22:24:57,440
2025-07-30 22:24:57,468
2025-07-30 22:24:57,445
2025-07-30 22:24:57,444
2025-07-30 22:24:57,461
2025-07-30 22:24:57,443
2025-07-30 22:24:57,427
2025-07-30 22:24:57,490
2025-07-30 22:24:57,467
2025-07-30 22:24:57,445
2025-07-30 22:24:57,480
2025-07-30 22:24:57,468
2025-07-30 22:24:57,438
2025-07-30 22:24:57,467
2025-07-30 22:24:57,488
2025-07-30 22:24:57,430
2025-07-30 22:24:57,459
2025-07-30 22:24:57,495
2025-07-30 22:24:57,434
2025-07-30 22:24:57,457
2025-07-30 22:24:57,497
2025-07-30 22:24:57,455
2025-07-30 22:24:57,430
2025-07-30 22:24:57,485
2025-07-30 22:24:57,471
2025-07-30 22:24:57,446
2025-07-30 22:24:57,488
2025-07-30 22:24:57,483
2025-07-30 22:24:57,445
2025-07-30 22:24:57,473
2025-07-30 22:24:57,478
2025-07-30 22:24:57,438
2025-07-30 22:24:57,475
2025-07-30 22:24:57,510
2025-07-30 22:24:57,453
2025-07-30 22:24:57,458
2025-07-30 22:24:57,491
2025-07-30 22:24:57,467
2025-07-30 22:24:57,447
2025-07-30 22:24:57,501
2025-07-30 22:24:57,483
2025-07-30 22:24:57,461
2025-07-30 22:24:57,485
2025-07-30 22:24:57,492
2025-07-30 22:24:57,451
2025-07-30 22:24:57,489
2025-07-30 22:24:57,480
2025-07-30 22:24:57,453
2025-07-30 22:24:57,487
2025-07-30 22:24:57,505
2025-07-30 22:24:57,457
2025-07-30 22:24:57,473
2025-07-30 22:24:57,513
2025-07-30 22:24:57,473
2025-07-30 22:24:57,464
2025-07-30 22:24:57,503
2025-07-30 22:24:58,483
2025-07-30 22:24:58,457
2025-07-30 22:24:58,511
2025-07-30 22:24:58,502
2025-07-30 22:24:58,458
2025-07-30 22:24:58,480
2025-07-30 22:24:58,485
2025-07-30 22:24:58,474
2025-07-30 22:24:58,485
2025-07-30 22:24:58,523
2025-07-30 22:24:58,467
2025-07-30 22:24:58,480
2025-07-30 22:24:58,494
2025-07-30 22:24:58,484
2025-07-30 22:24:58,477
2025-07-30 22:24:58,516
2025-07-30 22:24:58,502
2025-07-30 22:24:58,471
2025-07-30 22:24:58,503
2025-07-30 22:24:58,519
2025-07-30 22:24:58,456
2025-07-30 22:24:58,476
2025-07-30 22:24:58,507
2025-07-30 22:24:58,477
2025-07-30 22:24:58,491
2025-07-30 22:24:58,509
2025-07-30 22:24:58,472
2025-07-30 22:24:58,490
2025-07-30 22:24:58,496
2025-07-30 22:24:58,494
2025-07-30 22:24:58,470
2025-07-30 22:24:58,510
2025-07-30 22:24:58,487
2025-07-30 22:24:58,478
2025-07-30 22:24:58,517
2025-07-30 22:24:58,521
2025-07-30 22:24:58,459
2025-07-30 22:24:58,456
2025-07-30 22:24:58,538
2025-07-30 22:24:58,490
2025-07-30 22:24:58,484
2025-07-30 22:24:58,529
2025-07-30 22:24:58,469
2025-07-30 22:24:58,463
2025-07-30 22:24:58,517
2025-07-30 22:24:58,499
2025-07-30 22:24:58,486
2025-07-30 22:24:58,523
2025-07-30 22:24:58,493
2025-07-30 22:24:58,461
2025-07-30 22:24:58,490
2025-07-30 22:24:58,531
2025-07-30 22:24:58,457
2025-07-30 22:24:58,481
2025-07-30 22:24:58,525
2025-07-30 22:24:58,497
2025-07-30 22:24:58,509
2025-07-30 22:24:58,501
2025-07-30 22:24:58,493
2025-07-30 22:24:58,491
2025-07-30 22:24:58,516
2025-07-30 22:24:58,505
2025-07-30 22:24:58,464
2025-07-30 22:24:58,526
2025-07-30 22:24:58,507
2025-07-30 22:24:58,475
2025-07-30 22:24:58,519
2025-07-30 22:24:58,534
2025-07-30 22:24:58,489
2025-07-30 22:24:58,508
2025-07-30 22:24:58,533
2025-07-30 22:24:58,481
2025-07-30 22:24:58,496
2025-07-30 22:24:58,530
2025-07-30 22:24:58,511
2025-07-30 22:24:58,489
2025-07-30 22:24:58,508
2025-07-30 22:24:58,519
2025-07-30 22:24:58,492
2025-07-30 22:24:58,495
2025-07-30 22:24:58,526
2025-07-30 22:24:58,503
2025-07-30 22:24:58,529
2025-07-30 22:24:58,532
2025-07-30 22:24:58,467
2025-07-30 22:24:58,533
2025-07-30 22:24:58,563
2025-07-30 22:24:58,517
2025-07-30 22:24:58,510
2025-07-30 22:24:58,544
2025-07-30 22:24:58,512
2025-07-30 22:24:58,485
2025-07-30 22:24:58,541
2025-07-30 22:24:58,521
2025-07-30 22:24:58,480
2025-07-30 22:24:58,510
2025-07-30 22:24:58,542
2025-07-30 22:24:58,503
2025-07-30 22:24:58,521
2025-07-30 22:24:58,544
2025-07-30 22:24:58,509
2025-07-30 22:24:58,508
2025-07-30 22:24:58,556
2025-07-30 22:24:58,500
2025-07-30 22:24:58,511
2025-07-30 22:24:58,573
2025-07-30 22:24:58,525
2025-07-30 22:24:58,514
2025-07-30 22:24:58,520
2025-07-30 22:24:58,513
2025-07-30 22:24:58,501
2025-07-30 22:24:58,549
2025-07-30 22:24:58,545
2025-07-30 22:24:58,494
2025-07-30 22:24:58,515
2025-07-30 22:24:58,566
2025-07-30 22:24:58,521
2025-07-30 22:24:58,520
2025-07-30 22:24:58,544
2025-07-30 22:24:58,514
2025-07-30 22:24:58,501
2025-07-30 22:24:58,522
2025-07-30 22:24:58,533
2025-07-30 22:24:58,512
2025-07-30 22:24:58,550
2025-07-30 22:24:58,515
2025-07-30 22:24:58,487
2025-07-30 22:24:58,565
2025-07-30 22:24:58,539
2025-07-30 22:24:58,506
2025-07-30 22:24:58,540
2025-07-30 22:24:58,569
2025-07-30 22:24:58,512
2025-07-30 22:24:58,511
2025-07-30 22:24:58,543
2025-07-30 22:24:58,515
2025-07-30 22:24:58,508
2025-07-30 22:24:58,544
2025-07-30 22:24:58,506
2025-07-30 22:24:58,489
2025-07-30 22:24:58,565
2025-07-30 22:24:58,527
2025-07-30 22:24:58,520
2025-07-30 22:24:58,539
2025-07-30 22:24:58,526
2025-07-30 22:24:58,489
2025-07-30 22:24:58,545
2025-07-30 22:24:58,572
2025-07-30 22:24:58,529
2025-07-30 22:24:58,532
2025-07-30 22:24:58,570
2025-07-30 22:24:58,530
2025-07-30 22:24:58,511
2025-07-30 22:24:58,552
2025-07-30 22:24:58,533
2025-07-30 22:24:58,499
2025-07-30 22:24:58,549
2025-07-30 22:24:58,523
2025-07-30 22:24:58,487
2025-07-30 22:24:58,556
2025-07-30 22:24:58,575
2025-07-30 22:24:58,488
2025-07-30 22:24:58,510
2025-07-30 22:24:58,590
2025-07-30 22:24:58,536
2025-07-30 22:24:58,539
2025-07-30 22:24:58,573
2025-07-30 22:24:58,511
2025-07-30 22:24:58,512
2025-07-30 22:24:58,565
2025-07-30 22:24:58,548
2025-07-30 22:24:58,514
2025-07-30 22:24:58,555
2025-07-30 22:24:58,543
2025-07-30 22:24:58,508
2025-07-30 22:24:58,531
2025-07-30 22:24:58,556
2025-07-30 22:24:58,497
2025-07-30 22:24:58,538
2025-07-30 22:24:58,568
2025-07-30 22:24:58,503
2025-07-30 22:24:58,541
2025-07-30 22:24:58,554
2025-07-30 22:24:58,544
2025-07-30 22:24:58,541
2025-07-30 22:24:58,559
2025-07-30 22:24:58,490
2025-07-30 22:24:58,529
2025-07-30 22:24:58,554
2025-07-30 22:24:58,548
2025-07-30 22:24:58,521
2025-07-30 22:24:58,557
2025-07-30 22:24:58,576
2025-07-30 22:24:58,533
2025-07-30 22:24:59,529
2025-07-30 22:24:59,587
2025-07-30 22:24:59,529
2025-07-30 22:24:59,513
2025-07-30 22:24:59,556
2025-07-30 22:24:59,545
2025-07-30 22:24:59,466
2025-07-30 22:24:59,556
2025-07-30 22:24:59,545
2025-07-30 22:24:59,535
2025-07-30 22:24:59,566
2025-07-30 22:24:59,551
2025-07-30 22:24:59,524
2025-07-30 22:24:59,549
2025-07-30 22:24:59,571
2025-07-30 22:24:59,533
2025-07-30 22:24:59,556
2025-07-30 22:24:59,573
2025-07-30 22:24:59,528
2025-07-30 22:24:59,525
2025-07-30 22:24:59,560
2025-07-30 22:24:59,529
2025-07-30 22:24:59,516
2025-07-30 22:24:59,564
2025-07-30 22:24:59,566
2025-07-30 22:24:59,517
2025-07-30 22:24:59,534
2025-07-30 22:24:59,586
2025-07-30 22:24:59,542
2025-07-30 22:24:59,537
2025-07-30 22:24:59,568
2025-07-30 22:24:59,551
2025-07-30 22:24:59,560
2025-07-30 22:24:59,592
2025-07-30 22:24:59,544
2025-07-30 22:24:59,535
2025-07-30 22:24:59,587
2025-07-30 22:24:59,545
2025-07-30 22:24:59,507
2025-07-30 22:24:59,580
2025-07-30 22:24:59,571
2025-07-30 22:24:59,527
2025-07-30 22:24:59,529
2025-07-30 22:24:59,581
2025-07-30 22:24:59,549
2025-07-30 22:24:59,563
2025-07-30 22:24:59,582
2025-07-30 22:24:59,541
2025-07-30 22:24:59,546
2025-07-30 22:24:59,584
2025-07-30 22:24:59,552
2025-07-30 22:24:59,544
2025-07-30 22:24:59,583
2025-07-30 22:24:59,556
2025-07-30 22:24:59,528
2025-07-30 22:24:59,572
2025-07-30 22:24:59,562
2025-07-30 22:24:59,524
2025-07-30 22:24:59,567
2025-07-30 22:24:59,568
2025-07-30 22:24:59,526
2025-07-30 22:24:59,571
2025-07-30 22:24:59,592
2025-07-30 22:24:59,534
2025-07-30 22:24:59,560
2025-07-30 22:24:59,568
2025-07-30 22:24:59,553
2025-07-30 22:24:59,546
2025-07-30 22:24:59,588
2025-07-30 22:24:59,571
2025-07-30 22:24:59,547
2025-07-30 22:24:59,580
2025-07-30 22:24:59,573
2025-07-30 22:24:59,541
2025-07-30 22:24:59,563
2025-07-30 22:24:59,564
2025-07-30 22:24:59,519
2025-07-30 22:24:59,567
2025-07-30 22:24:59,589
2025-07-30 22:24:59,555
2025-07-30 22:24:59,553
2025-07-30 22:24:59,584
2025-07-30 22:24:59,543
2025-07-30 22:24:59,536
2025-07-30 22:24:59,597
2025-07-30 22:24:59,573
2025-07-30 22:24:59,541
2025-07-30 22:24:59,580
2025-07-30 22:24:59,559
2025-07-30 22:24:59,518
2025-07-30 22:24:59,574
2025-07-30 22:24:59,581
2025-07-30 22:24:59,534
2025-07-30 22:24:59,531
2025-07-30 22:24:59,581
2025-07-30 22:24:59,552
2025-07-30 22:24:59,545
2025-07-30 22:24:59,568
2025-07-30 22:24:59,551
2025-07-30 22:24:59,523
2025-07-30 22:24:59,564
2025-07-30 22:24:59,565
2025-07-30 22:24:59,542
2025-07-30 22:24:59,559
2025-07-30 22:24:59,548
2025-07-30 22:24:59,502
2025-07-30 22:24:59,555
2025-07-30 22:24:59,571
2025-07-30 22:24:59,524
2025-07-30 22:24:59,555
2025-07-30 22:24:59,578
2025-07-30 22:24:59,523
2025-07-30 22:24:59,524
2025-07-30 22:24:59,572
2025-07-30 22:24:59,539
2025-07-30 22:24:59,520
2025-07-30 22:24:59,550
2025-07-30 22:24:59,543
2025-07-30 22:24:59,499
2025-07-30 22:24:59,547
2025-07-30 22:24:59,533
2025-07-30 22:24:59,516
2025-07-30 22:24:59,548
2025-07-30 22:24:59,561
2025-07-30 22:24:59,518
2025-07-30 22:24:59,527
2025-07-30 22:24:59,551
2025-07-30 22:24:59,527
2025-07-30 22:24:59,531
2025-07-30 22:24:59,567
2025-07-30 22:24:59,544
2025-07-30 22:24:59,511
2025-07-30 22:24:59,559
2025-07-30 22:24:59,537
2025-07-30 22:24:59,501
2025-07-30 22:24:59,551
2025-07-30 22:24:59,552
2025-07-30 22:24:59,507
2025-07-30 22:24:59,509
2025-07-30 22:24:59,548
2025-07-30 22:24:59,528
2025-07-30 22:24:59,528
2025-07-30 22:24:59,557
2025-07-30 22:24:59,507
2025-07-30 22:24:59,518
2025-07-30 22:24:59,552
2025-07-30 22:24:59,515
2025-07-30 22:24:59,504
2025-07-30 22:24:59,558
2025-07-30 22:24:59,531
2025-07-30 22:24:59,482
2025-07-30 22:24:59,544
2025-07-30 22:24:59,552
2025-07-30 22:24:59,506
2025-07-30 22:24:59,528
2025-07-30 22:24:59,545
2025-07-30 22:24:59,488
2025-07-30 22:24:59,509
2025-07-30 22:24:59,551
2025-07-30 22:24:59,514
2025-07-30 22:24:59,496
2025-07-30 22:24:59,545
2025-07-30 22:24:59,528
2025-07-30 22:24:59,488
2025-07-30 22:24:59,541
2025-07-30 22:24:59,534
2025-07-30 22:24:59,493
2025-07-30 22:24:59,526
2025-07-30 22:24:59,540
2025-07-30 22:24:59,507
2025-07-30 22:24:59,515
2025-07-30 22:24:59,514
2025-07-30 22:24:59,501
2025-07-30 22:24:59,508
2025-07-30 22:24:59,540
2025-07-30 22:24:59,505
2025-07-30 22:24:59,489
2025-07-30 22:24:59,524
2025-07-30 22:24:59,516
2025-07-30 22:24:59,503
2025-07-30 22:24:59,540
2025-07-30 22:24:59,528
2025-07-30 22:24:59,482
2025-07-30 22:24:59,524
2025-07-30 22:24:59,529
2025-07-30 22:24:59,480
2025-07-30 22:24:59,511
2025-07-30 22:24:59,535
2025-07-30 22:24:59,499
2025-07-30 22:24:59,499
2025-07-30 22:25:00,534
2025-07-30 22:25:00,500
2025-07-30 22:25:00,470
2025-07-30 22:25:00,545
2025-07-30 22:25:00,531
2025-07-30 22:25:00,497
2025-07-30 22:25:00,529
2025-07-30 22:25:00,517
2025-07-30 22:25:00,486
2025-07-30 22:25:00,509
2025-07-30 22:25:00,524
2025-07-30 22:25:00,480
2025-07-30 22:25:00,506
2025-07-30 22:25:00,530
2025-07-30 22:25:00,497
2025-07-30 22:25:00,494
2025-07-30 22:25:00,552
2025-07-30 22:25:00,515
2025-07-30 22:25:00,477
2025-07-30 22:25:00,548
2025-07-30 22:25:00,528
2025-07-30 22:25:00,492
2025-07-30 22:25:00,508
2025-07-30 22:25:00,549
2025-07-30 22:25:00,495
2025-07-30 22:25:00,510
2025-07-30 22:25:00,536
2025-07-30 22:25:00,459
2025-07-30 22:25:00,507
2025-07-30 22:25:00,552
2025-07-30 22:25:00,497
2025-07-30 22:25:00,500
2025-07-30 22:25:00,543
2025-07-30 22:25:00,503
2025-07-30 22:25:00,514
2025-07-30 22:25:00,544
2025-07-30 22:25:00,508
2025-07-30 22:25:00,486
2025-07-30 22:25:00,530
2025-07-30 22:25:00,538
2025-07-30 22:25:00,485
2025-07-30 22:25:00,512
2025-07-30 22:25:00,519
2025-07-30 22:25:00,497
2025-07-30 22:25:00,510
2025-07-30 22:25:00,542
2025-07-30 22:25:00,499
2025-07-30 22:25:00,478
2025-07-30 22:25:00,518
2025-07-30 22:25:00,514
2025-07-30 22:25:00,501
2025-07-30 22:25:00,550
2025-07-30 22:25:00,532
2025-07-30 22:25:00,499
2025-07-30 22:25:00,530
2025-07-30 22:25:00,499
2025-07-30 22:25:00,489
2025-07-30 22:25:00,516
2025-07-30 22:25:00,534
2025-07-30 22:25:00,476
2025-07-30 22:25:00,490
2025-07-30 22:25:00,518
2025-07-30 22:25:00,485
2025-07-30 22:25:00,492
2025-07-30 22:25:00,540
2025-07-30 22:25:00,518
2025-07-30 22:25:00,487
2025-07-30 22:25:00,521
2025-07-30 22:25:00,533
2025-07-30 22:25:00,489
2025-07-30 22:25:00,522
2025-07-30 22:25:00,544
2025-07-30 22:25:00,484
2025-07-30 22:25:00,519
2025-07-30 22:25:00,534
2025-07-30 22:25:00,467
2025-07-30 22:25:00,503
2025-07-30 22:25:00,526
2025-07-30 22:25:00,488
2025-07-30 22:25:00,495
2025-07-30 22:25:00,510
2025-07-30 22:25:00,531
2025-07-30 22:25:00,496
2025-07-30 22:25:00,534
2025-07-30 22:25:00,522
2025-07-30 22:25:00,470
2025-07-30 22:25:00,529
2025-07-30 22:25:00,538
2025-07-30 22:25:00,485
2025-07-30 22:25:00,502
2025-07-30 22:25:00,537
2025-07-30 22:25:00,498
2025-07-30 22:25:00,498
2025-07-30 22:25:00,508
2025-07-30 22:25:00,511
2025-07-30 22:25:00,485
2025-07-30 22:25:00,542
2025-07-30 22:25:00,522
2025-07-30 22:25:00,480
2025-07-30 22:25:00,503
2025-07-30 22:25:00,551
2025-07-30 22:25:00,515
2025-07-30 22:25:00,520
2025-07-30 22:25:00,536
2025-07-30 22:25:00,489
2025-07-30 22:25:00,510
2025-07-30 22:25:00,539
2025-07-30 22:25:00,493
2025-07-30 22:25:00,498
2025-07-30 22:25:00,536
2025-07-30 22:25:00,509
2025-07-30 22:25:00,483
2025-07-30 22:25:00,536
2025-07-30 22:25:00,525
2025-07-30 22:25:00,498
2025-07-30 22:25:00,532
2025-07-30 22:25:00,499
2025-07-30 22:25:00,493
2025-07-30 22:25:00,532
2025-07-30 22:25:00,540
2025-07-30 22:25:00,477
2025-07-30 22:25:00,498
2025-07-30 22:25:00,543
2025-07-30 22:25:00,503
2025-07-30 22:25:00,508
2025-07-30 22:25:00,545
2025-07-30 22:25:00,503
2025-07-30 22:25:00,472
2025-07-30 22:25:00,537
2025-07-30 22:25:00,533
2025-07-30 22:25:00,493
2025-07-30 22:25:00,514
2025-07-30 22:25:00,534
2025-07-30 22:25:00,478
2025-07-30 22:25:00,480
2025-07-30 22:25:00,541
2025-07-30 22:25:00,505
2025-07-30 22:25:00,508
2025-07-30 22:25:00,542
2025-07-30 22:25:00,510
2025-07-30 22:25:00,481
2025-07-30 22:25:00,517
2025-07-30 22:25:00,522
2025-07-30 22:25:00,485
2025-07-30 22:25:00,518
2025-07-30 22:25:00,513
2025-07-30 22:25:00,488
2025-07-30 22:25:00,519
2025-07-30 22:25:00,537
2025-07-30 22:25:00,488
2025-07-30 22:25:00,510
2025-07-30 22:25:00,537
2025-07-30 22:25:00,484
2025-07-30 22:25:00,480
2025-07-30 22:25:00,543
2025-07-30 22:25:00,492
2025-07-30 22:25:00,490
2025-07-30 22:25:00,543
2025-07-30 22:25:00,515
2025-07-30 22:25:00,485
2025-07-30 22:25:00,527
2025-07-30 22:25:00,516
2025-07-30 22:25:00,487
2025-07-30 22:25:00,509
2025-07-30 22:25:00,542
2025-07-30 22:25:00,484
2025-07-30 22:25:00,500
2025-07-30 22:25:00,550
2025-07-30 22:25:00,492
2025-07-30 22:25:00,516
2025-07-30 22:25:00,547
2025-07-30 22:25:00,500
2025-07-30 22:25:00,491
2025-07-30 22:25:00,533
2025-07-30 22:25:00,511
2025-07-30 22:25:00,482
2025-07-30 22:25:00,522
2025-07-30 22:25:00,508
2025-07-30 22:25:00,476
2025-07-30 22:25:00,529
2025-07-30 22:25:00,520
2025-07-30 22:25:00,474
2025-07-30 22:25:00,485
2025-07-30 22:25:00,548
2025-07-30 22:25:00,511
2025-07-30 22:25:00,499
2025-07-30 22:25:00,539
2025-07-30 22:25:00,495
2025-07-30 22:25:00,488
2025-07-30 22:25:00,524
2025-07-30 22:25:00,511
2025-07-30 22:25:00,479
2025-07-30 22:25:00,519
2025-07-30 22:25:00,505
2025-07-30 22:25:01,468
2025-07-30 22:25:01,508
2025-07-30 22:25:01,532
2025-07-30 22:25:01,486
2025-07-30 22:25:01,474
2025-07-30 22:25:01,509
2025-07-30 22:25:01,483
2025-07-30 22:25:01,505
2025-07-30 22:25:01,542
2025-07-30 22:25:01,498
2025-07-30 22:25:01,481
2025-07-30 22:25:01,524
2025-07-30 22:25:01,513
2025-07-30 22:25:01,477
2025-07-30 22:25:01,513
2025-07-30 22:25:01,513
2025-07-30 22:25:01,475
2025-07-30 22:25:01,497
2025-07-30 22:25:01,516
2025-07-30 22:25:01,481
2025-07-30 22:25:01,479
2025-07-30 22:25:01,531
2025-07-30 22:25:01,492
2025-07-30 22:25:01,482
2025-07-30 22:25:01,521
2025-07-30 22:25:01,498
2025-07-30 22:25:01,461
2025-07-30 22:25:01,520
2025-07-30 22:25:01,512
2025-07-30 22:25:01,474
2025-07-30 22:25:01,510
2025-07-30 22:25:01,509
2025-07-30 22:25:01,464
2025-07-30 22:25:01,480
2025-07-30 22:25:01,522
2025-07-30 22:25:01,488
2025-07-30 22:25:01,490
2025-07-30 22:25:01,523
2025-07-30 22:25:01,483
2025-07-30 22:25:01,468
2025-07-30 22:25:01,515
2025-07-30 22:25:01,496
2025-07-30 22:25:01,473
2025-07-30 22:25:01,505
2025-07-30 22:25:01,488
2025-07-30 22:25:01,466
2025-07-30 22:25:01,498
2025-07-30 22:25:01,514
2025-07-30 22:25:01,468
2025-07-30 22:25:01,482
2025-07-30 22:25:01,519
2025-07-30 22:25:01,474
2025-07-30 22:25:01,476
2025-07-30 22:25:01,515
2025-07-30 22:25:01,474
2025-07-30 22:25:01,473
2025-07-30 22:25:01,511
2025-07-30 22:25:01,493
2025-07-30 22:25:01,475
2025-07-30 22:25:01,525
2025-07-30 22:25:01,511
2025-07-30 22:25:01,471
2025-07-30 22:25:01,499
2025-07-30 22:25:01,501
2025-07-30 22:25:01,465
2025-07-30 22:25:01,512
2025-07-30 22:25:01,532
2025-07-30 22:25:01,476
2025-07-30 22:25:01,500
2025-07-30 22:25:01,531
2025-07-30 22:25:01,496
2025-07-30 22:25:01,482
2025-07-30 22:25:01,526
2025-07-30 22:25:01,489
2025-07-30 22:25:01,478
2025-07-30 22:25:01,524
2025-07-30 22:25:01,492
2025-07-30 22:25:01,479
2025-07-30 22:25:01,514
2025-07-30 22:25:01,524
2025-07-30 22:25:01,478
2025-07-30 22:25:01,495
2025-07-30 22:25:01,516
2025-07-30 22:25:01,485
2025-07-30 22:25:01,493
2025-07-30 22:25:01,524
2025-07-30 22:25:01,501
2025-07-30 22:25:01,479
2025-07-30 22:25:01,508
2025-07-30 22:25:01,503
2025-07-30 22:25:01,471
2025-07-30 22:25:01,497
2025-07-30 22:25:01,507
2025-07-30 22:25:01,470
2025-07-30 22:25:01,494
2025-07-30 22:25:01,519
2025-07-30 22:25:01,476
2025-07-30 22:25:01,486
2025-07-30 22:25:01,519
2025-07-30 22:25:01,474
2025-07-30 22:25:01,487
2025-07-30 22:25:01,527
2025-07-30 22:25:01,483
2025-07-30 22:25:01,470
2025-07-30 22:25:01,526
2025-07-30 22:25:01,511
2025-07-30 22:25:01,477
2025-07-30 22:25:01,504
2025-07-30 22:25:01,516
2025-07-30 22:25:01,467
2025-07-30 22:25:01,496
2025-07-30 22:25:01,516
2025-07-30 22:25:01,467
2025-07-30 22:25:01,488
2025-07-30 22:25:01,529
2025-07-30 22:25:01,482
2025-07-30 22:25:01,481
2025-07-30 22:25:01,535
2025-07-30 22:25:01,496
2025-07-30 22:25:01,472
2025-07-30 22:25:01,512
2025-07-30 22:25:01,487
2025-07-30 22:25:01,449
2025-07-30 22:25:01,527
2025-07-30 22:25:01,533
2025-07-30 22:25:01,472
2025-07-30 22:25:01,497
2025-07-30 22:25:01,520
2025-07-30 22:25:01,486
2025-07-30 22:25:01,497
2025-07-30 22:25:01,531
2025-07-30 22:25:01,488
2025-07-30 22:25:01,493
2025-07-30 22:25:01,536
2025-07-30 22:25:01,502
2025-07-30 22:25:01,485
2025-07-30 22:25:01,534
2025-07-30 22:25:01,514
2025-07-30 22:25:01,469
2025-07-30 22:25:01,514
2025-07-30 22:25:01,516
2025-07-30 22:25:01,461
2025-07-30 22:25:01,512
2025-07-30 22:25:01,521
2025-07-30 22:25:01,489
2025-07-30 22:25:01,516
2025-07-30 22:25:01,527
2025-07-30 22:25:01,502
2025-07-30 22:25:01,493
2025-07-30 22:25:01,532
2025-07-30 22:25:01,512
2025-07-30 22:25:01,477
2025-07-30 22:25:01,520
2025-07-30 22:25:01,518
2025-07-30 22:25:01,482
2025-07-30 22:25:01,521
2025-07-30 22:25:01,526
2025-07-30 22:25:01,485
2025-07-30 22:25:01,508
2025-07-30 22:25:01,530
2025-07-30 22:25:01,485
2025-07-30 22:25:01,492
2025-07-30 22:25:01,532
2025-07-30 22:25:01,501
2025-07-30 22:25:01,479
2025-07-30 22:25:01,534
2025-07-30 22:25:01,510
2025-07-30 22:25:01,485
2025-07-30 22:25:01,523
2025-07-30 22:25:01,510
2025-07-30 22:25:01,468
2025-07-30 22:25:01,516
2025-07-30 22:25:01,531
2025-07-30 22:25:01,478
2025-07-30 22:25:01,519
2025-07-30 22:25:01,534
2025-07-30 22:25:01,493
2025-07-30 22:25:01,495
2025-07-30 22:25:01,507
2025-07-30 22:25:01,511
2025-07-30 22:25:01,491
2025-07-30 22:25:01,522
2025-07-30 22:25:01,511
2025-07-30 22:25:01,489
2025-07-30 22:25:01,517
2025-07-30 22:25:01,520
2025-07-30 22:25:01,488
2025-07-30 22:25:01,511
2025-07-30 22:25:01,514
2025-07-30 22:25:01,498
2025-07-30 22:25:02,496
2025-07-30 22:25:02,531
2025-07-30 22:25:02,497
2025-07-30 22:25:02,511
2025-07-30 22:25:02,539
2025-07-30 22:25:02,503
2025-07-30 22:25:02,482
2025-07-30 22:25:02,516
2025-07-30 22:25:02,497
2025-07-30 22:25:02,490
2025-07-30 22:25:02,518
2025-07-30 22:25:02,512
2025-07-30 22:25:02,483
2025-07-30 22:25:02,495
2025-07-30 22:25:02,541
2025-07-30 22:25:02,501
2025-07-30 22:25:02,510
2025-07-30 22:25:02,537
2025-07-30 22:25:02,490
2025-07-30 22:25:02,491
2025-07-30 22:25:02,542
2025-07-30 22:25:02,512
2025-07-30 22:25:02,485
2025-07-30 22:25:02,520
2025-07-30 22:25:02,501
2025-07-30 22:25:02,479
2025-07-30 22:25:02,522
2025-07-30 22:25:02,540
2025-07-30 22:25:02,484
2025-07-30 22:25:02,500
2025-07-30 22:25:02,516
2025-07-30 22:25:02,502
2025-07-30 22:25:02,523
2025-07-30 22:25:02,533
2025-07-30 22:25:02,469
2025-07-30 22:25:02,510
2025-07-30 22:25:02,531
2025-07-30 22:25:02,518
2025-07-30 22:25:02,498
2025-07-30 22:25:02,534
2025-07-30 22:25:02,521
2025-07-30 22:25:02,485
2025-07-30 22:25:02,525
2025-07-30 22:25:02,524
2025-07-30 22:25:02,467
2025-07-30 22:25:02,511
2025-07-30 22:25:02,541
2025-07-30 22:25:02,494
2025-07-30 22:25:02,508
2025-07-30 22:25:02,533
2025-07-30 22:25:02,482
2025-07-30 22:25:02,494
2025-07-30 22:25:02,532
2025-07-30 22:25:02,509
2025-07-30 22:25:02,506
2025-07-30 22:25:02,544
2025-07-30 22:25:02,521
2025-07-30 22:25:02,488
2025-07-30 22:25:02,517
2025-07-30 22:25:02,521
2025-07-30 22:25:02,449
2025-07-30 22:25:02,502
2025-07-30 22:25:02,543
2025-07-30 22:25:02,502
2025-07-30 22:25:02,504
2025-07-30 22:25:02,538
2025-07-30 22:25:02,500
2025-07-30 22:25:02,477
2025-07-30 22:25:02,529
2025-07-30 22:25:02,512
2025-07-30 22:25:02,500
2025-07-30 22:25:02,527
2025-07-30 22:25:02,524
2025-07-30 22:25:02,488
2025-07-30 22:25:02,518
2025-07-30 22:25:02,525
2025-07-30 22:25:02,487
2025-07-30 22:25:02,512
2025-07-30 22:25:02,546
2025-07-30 22:25:02,507
2025-07-30 22:25:02,503
2025-07-30 22:25:02,532
2025-07-30 22:25:02,495
2025-07-30 22:25:02,479
2025-07-30 22:25:02,529
2025-07-30 22:25:02,523
2025-07-30 22:25:02,507
2025-07-30 22:25:02,546
2025-07-30 22:25:02,533
2025-07-30 22:25:02,479
2025-07-30 22:25:02,514
2025-07-30 22:25:02,534
2025-07-30 22:25:02,484
2025-07-30 22:25:02,512
2025-07-30 22:25:02,534
2025-07-30 22:25:02,497
2025-07-30 22:25:02,492
2025-07-30 22:25:02,550
2025-07-30 22:25:02,510
2025-07-30 22:25:02,490
2025-07-30 22:25:02,539
2025-07-30 22:25:02,532
2025-07-30 22:25:02,488
2025-07-30 22:25:02,530
2025-07-30 22:25:02,534
2025-07-30 22:25:02,488
2025-07-30 22:25:02,511
2025-07-30 22:25:02,538
2025-07-30 22:25:02,500
2025-07-30 22:25:02,511
2025-07-30 22:25:02,535
2025-07-30 22:25:02,508
2025-07-30 22:25:02,488
2025-07-30 22:25:02,526
2025-07-30 22:25:02,523
2025-07-30 22:25:02,482
2025-07-30 22:25:02,553
2025-07-30 22:25:02,527
2025-07-30 22:25:02,486
2025-07-30 22:25:02,525
2025-07-30 22:25:02,544
2025-07-30 22:25:02,515
2025-07-30 22:25:02,526
2025-07-30 22:25:02,536
2025-07-30 22:25:02,499
2025-07-30 22:25:02,513
2025-07-30 22:25:02,552
2025-07-30 22:25:02,506
2025-07-30 22:25:02,505
2025-07-30 22:25:02,533
2025-07-30 22:25:02,522
2025-07-30 22:25:02,502
2025-07-30 22:25:02,536
2025-07-30 22:25:02,510
2025-07-30 22:25:02,506
2025-07-30 22:25:02,540
2025-07-30 22:25:02,518
2025-07-30 22:25:02,497
2025-07-30 22:25:02,533
2025-07-30 22:25:02,560
2025-07-30 22:25:02,505
2025-07-30 22:25:02,512
2025-07-30 22:25:02,541
2025-07-30 22:25:02,525
2025-07-30 22:25:02,511
2025-07-30 22:25:02,541
2025-07-30 22:25:02,507
2025-07-30 22:25:02,502
2025-07-30 22:25:02,552
2025-07-30 22:25:02,531
2025-07-30 22:25:02,484
2025-07-30 22:25:02,522
2025-07-30 22:25:02,550
2025-07-30 22:25:02,492
2025-07-30 22:25:02,523
2025-07-30 22:25:02,542
2025-07-30 22:25:02,492
2025-07-30 22:25:02,496
2025-07-30 22:25:02,554
2025-07-30 22:25:02,520
2025-07-30 22:25:02,493
2025-07-30 22:25:02,536
2025-07-30 22:25:02,523
2025-07-30 22:25:02,488
2025-07-30 22:25:02,540
2025-07-30 22:25:02,524
2025-07-30 22:25:02,482
2025-07-30 22:25:02,531
2025-07-30 22:25:02,542
2025-07-30 22:25:02,500
2025-07-30 22:25:02,497
2025-07-30 22:25:02,545
2025-07-30 22:25:02,498
2025-07-30 22:25:02,498
2025-07-30 22:25:02,519
2025-07-30 22:25:02,507
2025-07-30 22:25:02,497
2025-07-30 22:25:02,531
2025-07-30 22:25:02,525
2025-07-30 22:25:02,466
2025-07-30 22:25:02,531
2025-07-30 22:25:02,520
2025-07-30 22:25:02,486
2025-07-30 22:25:02,533
2025-07-30 22:25:02,535
2025-07-30 22:25:02,487
2025-07-30 22:25:02,532
2025-07-30 22:25:02,549
2025-07-30 22:25:02,493
2025-07-30 22:25:02,507
2025-07-30 22:25:02,531
2025-07-30 22:25:02,502
2025-07-30 22:25:02,469
2025-07-30 22:25:02,517
2025-07-30 22:25:03,536
2025-07-30 22:25:03,501
2025-07-30 22:25:03,528
2025-07-30 22:25:03,515
2025-07-30 22:25:03,474
2025-07-30 22:25:03,519
2025-07-30 22:25:03,542
2025-07-30 22:25:03,486
2025-07-30 22:25:03,506
2025-07-30 22:25:03,542
2025-07-30 22:25:03,501
2025-07-30 22:25:03,503
2025-07-30 22:25:03,517
2025-07-30 22:25:03,493
2025-07-30 22:25:03,467
2025-07-30 22:25:03,547
2025-07-30 22:25:03,531
2025-07-30 22:25:03,490
2025-07-30 22:25:03,524
2025-07-30 22:25:03,528
2025-07-30 22:25:03,499
2025-07-30 22:25:03,517
2025-07-30 22:25:03,525
2025-07-30 22:25:03,485
2025-07-30 22:25:03,500
2025-07-30 22:25:03,547
2025-07-30 22:25:03,504
2025-07-30 22:25:03,497
2025-07-30 22:25:03,517
2025-07-30 22:25:03,479
2025-07-30 22:25:03,479
2025-07-30 22:25:03,542
2025-07-30 22:25:03,509
2025-07-30 22:25:03,479
2025-07-30 22:25:03,533
2025-07-30 22:25:03,527
2025-07-30 22:25:03,463
2025-07-30 22:25:03,506
2025-07-30 22:25:03,549
2025-07-30 22:25:03,477
2025-07-30 22:25:03,500
2025-07-30 22:25:03,546
2025-07-30 22:25:03,490
2025-07-30 22:25:03,485
2025-07-30 22:25:03,543
2025-07-30 22:25:03,516
2025-07-30 22:25:03,473
2025-07-30 22:25:03,531
2025-07-30 22:25:03,520
2025-07-30 22:25:03,495
2025-07-30 22:25:03,525
2025-07-30 22:25:03,497
2025-07-30 22:25:03,481
2025-07-30 22:25:03,517
2025-07-30 22:25:03,540
2025-07-30 22:25:03,498
2025-07-30 22:25:03,497
2025-07-30 22:25:03,527
2025-07-30 22:25:03,503
2025-07-30 22:25:03,494
2025-07-30 22:25:03,546
2025-07-30 22:25:03,509
2025-07-30 22:25:03,480
2025-07-30 22:25:03,541
2025-07-30 22:25:03,524
2025-07-30 22:25:03,480
2025-07-30 22:25:03,496
2025-07-30 22:25:03,528
2025-07-30 22:25:03,507
2025-07-30 22:25:03,511
2025-07-30 22:25:03,530
2025-07-30 22:25:03,489
2025-07-30 22:25:03,507
2025-07-30 22:25:03,548
2025-07-30 22:25:03,511
2025-07-30 22:25:03,492
2025-07-30 22:25:03,527
2025-07-30 22:25:03,503
2025-07-30 22:25:03,496
2025-07-30 22:25:03,550
2025-07-30 22:25:03,534
2025-07-30 22:25:03,475
2025-07-30 22:25:03,503
2025-07-30 22:25:03,524
2025-07-30 22:25:03,493
2025-07-30 22:25:03,529
2025-07-30 22:25:03,550
2025-07-30 22:25:03,497
2025-07-30 22:25:03,490
2025-07-30 22:25:03,547
2025-07-30 22:25:03,502
2025-07-30 22:25:03,490
2025-07-30 22:25:03,549
2025-07-30 22:25:03,521
2025-07-30 22:25:03,486
2025-07-30 22:25:03,535
2025-07-30 22:25:03,537
2025-07-30 22:25:03,496
2025-07-30 22:25:03,525
2025-07-30 22:25:03,525
2025-07-30 22:25:03,473
2025-07-30 22:25:03,499
2025-07-30 22:25:03,542
2025-07-30 22:25:03,518
2025-07-30 22:25:03,517
2025-07-30 22:25:03,550
2025-07-30 22:25:03,505
2025-07-30 22:25:03,496
2025-07-30 22:25:03,544
2025-07-30 22:25:03,532
2025-07-30 22:25:03,500
2025-07-30 22:25:03,536
2025-07-30 22:25:03,529
2025-07-30 22:25:03,488
2025-07-30 22:25:03,503
2025-07-30 22:25:03,513
2025-07-30 22:25:03,515
2025-07-30 22:25:03,522
2025-07-30 22:25:03,544
2025-07-30 22:25:03,510
2025-07-30 22:25:03,507
2025-07-30 22:25:03,550
2025-07-30 22:25:03,514
2025-07-30 22:25:03,478
2025-07-30 22:25:03,552
2025-07-30 22:25:03,527
2025-07-30 22:25:03,492
2025-07-30 22:25:03,532
2025-07-30 22:25:03,539
2025-07-30 22:25:03,493
2025-07-30 22:25:03,519
2025-07-30 22:25:03,543
2025-07-30 22:25:03,505
2025-07-30 22:25:03,512
2025-07-30 22:25:03,549
2025-07-30 22:25:03,518
2025-07-30 22:25:03,500
2025-07-30 22:25:03,542
2025-07-30 22:25:03,515
2025-07-30 22:25:03,489
2025-07-30 22:25:03,533
2025-07-30 22:25:03,535
2025-07-30 22:25:03,498
2025-07-30 22:25:03,523
2025-07-30 22:25:03,507
2025-07-30 22:25:03,495
2025-07-30 22:25:03,522
2025-07-30 22:25:03,560
2025-07-30 22:25:03,512
2025-07-30 22:25:03,522
2025-07-30 22:25:03,548
2025-07-30 22:25:03,505
2025-07-30 22:25:03,496
2025-07-30 22:25:03,540
2025-07-30 22:25:03,511
2025-07-30 22:25:03,482
2025-07-30 22:25:03,541
2025-07-30 22:25:03,539
2025-07-30 22:25:03,479
2025-07-30 22:25:03,523
2025-07-30 22:25:03,528
2025-07-30 22:25:03,481
2025-07-30 22:25:03,525
2025-07-30 22:25:03,530
2025-07-30 22:25:03,501
2025-07-30 22:25:03,511
2025-07-30 22:25:03,545
2025-07-30 22:25:03,508
2025-07-30 22:25:03,496
2025-07-30 22:25:03,531
2025-07-30 22:25:03,501
2025-07-30 22:25:03,478
2025-07-30 22:25:03,527
2025-07-30 22:25:03,523
2025-07-30 22:25:03,472
2025-07-30 22:25:03,520
2025-07-30 22:25:03,539
2025-07-30 22:25:03,490
2025-07-30 22:25:03,514
2025-07-30 22:25:03,540
2025-07-30 22:25:03,487
2025-07-30 22:25:03,498
2025-07-30 22:25:03,536
2025-07-30 22:25:03,505
2025-07-30 22:25:03,478
2025-07-30 22:25:03,526
2025-07-30 22:25:03,495
2025-07-30 22:25:03,470
2025-07-30 22:25:03,514
2025-07-30 22:25:03,516
2025-07-30 22:25:04,485
2025-07-30 22:25:04,527
2025-07-30 22:25:04,526
2025-07-30 22:25:04,477
2025-07-30 22:25:04,493
2025-07-30 22:25:04,526
2025-07-30 22:25:04,478
2025-07-30 22:25:04,485
2025-07-30 22:25:04,516
2025-07-30 22:25:04,489
2025-07-30 22:25:04,462
2025-07-30 22:25:04,524
2025-07-30 22:25:04,510
2025-07-30 22:25:04,470
2025-07-30 22:25:04,520
2025-07-30 22:25:04,517
2025-07-30 22:25:04,474
2025-07-30 22:25:04,489
2025-07-30 22:25:04,518
2025-07-30 22:25:04,493
2025-07-30 22:25:04,485
2025-07-30 22:25:04,534
2025-07-30 22:25:04,490
2025-07-30 22:25:04,471
2025-07-30 22:25:04,515
2025-07-30 22:25:04,481
2025-07-30 22:25:04,462
2025-07-30 22:25:04,526
2025-07-30 22:25:04,527
2025-07-30 22:25:04,480
2025-07-30 22:25:04,515
2025-07-30 22:25:04,510
2025-07-30 22:25:04,472
2025-07-30 22:25:04,502
2025-07-30 22:25:04,518
2025-07-30 22:25:04,470
2025-07-30 22:25:04,487
2025-07-30 22:25:04,511
2025-07-30 22:25:04,477
2025-07-30 22:25:04,469
2025-07-30 22:25:04,520
2025-07-30 22:25:04,498
2025-07-30 22:25:04,478
2025-07-30 22:25:04,527
2025-07-30 22:25:04,512
2025-07-30 22:25:04,478
2025-07-30 22:25:04,507
2025-07-30 22:25:04,503
2025-07-30 22:25:04,454
2025-07-30 22:25:04,478
2025-07-30 22:25:04,492
2025-07-30 22:25:04,472
2025-07-30 22:25:04,486
2025-07-30 22:25:04,520
2025-07-30 22:25:04,484
2025-07-30 22:25:04,481
2025-07-30 22:25:04,524
2025-07-30 22:25:04,495
2025-07-30 22:25:04,469
2025-07-30 22:25:04,510
2025-07-30 22:25:04,504
2025-07-30 22:25:04,450
2025-07-30 22:25:04,497
2025-07-30 22:25:04,495
2025-07-30 22:25:04,458
2025-07-30 22:25:04,471
2025-07-30 22:25:04,481
2025-07-30 22:25:04,483
2025-07-30 22:25:04,480
2025-07-30 22:25:04,510
2025-07-30 22:25:04,486
2025-07-30 22:25:04,470
2025-07-30 22:25:04,496
2025-07-30 22:25:04,487
2025-07-30 22:25:04,472
2025-07-30 22:25:04,504
2025-07-30 22:25:04,493
2025-07-30 22:25:04,466
2025-07-30 22:25:04,496
2025-07-30 22:25:04,497
2025-07-30 22:25:04,453
2025-07-30 22:25:04,489
2025-07-30 22:25:04,514
2025-07-30 22:25:04,463
2025-07-30 22:25:04,447
2025-07-30 22:25:04,516
2025-07-30 22:25:04,484
2025-07-30 22:25:04,469
2025-07-30 22:25:04,503
2025-07-30 22:25:04,476
2025-07-30 22:25:04,442
2025-07-30 22:25:04,488
2025-07-30 22:25:04,509
2025-07-30 22:25:04,470
2025-07-30 22:25:04,503
2025-07-30 22:25:04,506
2025-07-30 22:25:04,460
2025-07-30 22:25:04,475
2025-07-30 22:25:04,501
2025-07-30 22:25:04,467
2025-07-30 22:25:04,474
2025-07-30 22:25:04,502
2025-07-30 22:25:04,464
2025-07-30 22:25:04,457
2025-07-30 22:25:04,495
2025-07-30 22:25:04,501
2025-07-30 22:25:04,459
2025-07-30 22:25:04,492
2025-07-30 22:25:04,494
2025-07-30 22:25:04,446
2025-07-30 22:25:04,483
2025-07-30 22:25:04,494
2025-07-30 22:25:04,456
2025-07-30 22:25:04,476
2025-07-30 22:25:04,498
2025-07-30 22:25:04,474
2025-07-30 22:25:04,471
2025-07-30 22:25:04,505
2025-07-30 22:25:04,474
2025-07-30 22:25:04,458
2025-07-30 22:25:04,499
2025-07-30 22:25:04,482
2025-07-30 22:25:04,450
2025-07-30 22:25:04,480
2025-07-30 22:25:04,500
2025-07-30 22:25:04,455
2025-07-30 22:25:04,484
2025-07-30 22:25:04,509
2025-07-30 22:25:04,464
2025-07-30 22:25:04,484
2025-07-30 22:25:04,502
2025-07-30 22:25:04,465
2025-07-30 22:25:04,461
2025-07-30 22:25:04,502
2025-07-30 22:25:04,472
2025-07-30 22:25:04,461
2025-07-30 22:25:04,501
2025-07-30 22:25:04,501
2025-07-30 22:25:04,455
2025-07-30 22:25:04,492
2025-07-30 22:25:04,487
2025-07-30 22:25:04,449
2025-07-30 22:25:04,479
2025-07-30 22:25:04,512
2025-07-30 22:25:04,460
2025-07-30 22:25:04,486
2025-07-30 22:25:04,514
2025-07-30 22:25:04,474
2025-07-30 22:25:04,469
2025-07-30 22:25:04,502
2025-07-30 22:25:04,490
2025-07-30 22:25:04,457
2025-07-30 22:25:04,501
2025-07-30 22:25:04,487
2025-07-30 22:25:04,451
2025-07-30 22:25:04,510
2025-07-30 22:25:04,508
2025-07-30 22:25:04,459
2025-07-30 22:25:04,481
2025-07-30 22:25:04,510
2025-07-30 22:25:04,470
2025-07-30 22:25:04,477
2025-07-30 22:25:04,524
2025-07-30 22:25:04,485
2025-07-30 22:25:04,475
2025-07-30 22:25:04,508
2025-07-30 22:25:04,478
2025-07-30 22:25:04,465
2025-07-30 22:25:04,510
2025-07-30 22:25:04,508
2025-07-30 22:25:04,460
2025-07-30 22:25:04,488
2025-07-30 22:25:04,506
2025-07-30 22:25:04,473
2025-07-30 22:25:04,489
2025-07-30 22:25:04,529
2025-07-30 22:25:04,489
2025-07-30 22:25:04,464
2025-07-30 22:25:04,519
2025-07-30 22:25:04,486
2025-07-30 22:25:04,464
2025-07-30 22:25:04,516
2025-07-30 22:25:04,504
2025-07-30 22:25:04,476
2025-07-30 22:25:04,509
2025-07-30 22:25:04,497
2025-07-30 22:25:04,468
2025-07-30 22:25:04,500
2025-07-30 22:25:04,525
2025-07-30 22:25:04,468
2025-07-30 22:25:04,475
2025-07-30 22:25:04,520
2025-07-30 22:25:04,486
2025-07-30 22:25:04,494
2025-07-30 22:25:05,524
2025-07-30 22:25:05,478
2025-07-30 22:25:05,485
2025-07-30 22:25:05,520
2025-07-30 22:25:05,496
2025-07-30 22:25:05,463
2025-07-30 22:25:05,504
2025-07-30 22:25:05,508
2025-07-30 22:25:05,472
2025-07-30 22:25:05,500
2025-07-30 22:25:05,530
2025-07-30 22:25:05,470
2025-07-30 22:25:05,493
2025-07-30 22:25:05,530
2025-07-30 22:25:05,487
2025-07-30 22:25:05,499
2025-07-30 22:25:05,520
2025-07-30 22:25:05,496
2025-07-30 22:25:05,482
2025-07-30 22:25:05,515
2025-07-30 22:25:05,494
2025-07-30 22:25:05,479
2025-07-30 22:25:05,517
2025-07-30 22:25:05,508
2025-07-30 22:25:05,468
2025-07-30 22:25:05,510
2025-07-30 22:25:05,531
2025-07-30 22:25:05,479
2025-07-30 22:25:05,493
2025-07-30 22:25:05,520
2025-07-30 22:25:05,491
2025-07-30 22:25:05,501
2025-07-30 22:25:05,536
2025-07-30 22:25:05,498
2025-07-30 22:25:05,460
2025-07-30 22:25:05,516
2025-07-30 22:25:05,527
2025-07-30 22:25:05,468
2025-07-30 22:25:05,523
2025-07-30 22:25:05,533
2025-07-30 22:25:05,481
2025-07-30 22:25:05,501
2025-07-30 22:25:05,532
2025-07-30 22:25:05,487
2025-07-30 22:25:05,500
2025-07-30 22:25:05,534
2025-07-30 22:25:05,485
2025-07-30 22:25:05,485
2025-07-30 22:25:05,526
2025-07-30 22:25:05,508
2025-07-30 22:25:05,475
2025-07-30 22:25:05,505
2025-07-30 22:25:05,520
2025-07-30 22:25:05,479
2025-07-30 22:25:05,524
2025-07-30 22:25:05,533
2025-07-30 22:25:05,471
2025-07-30 22:25:05,504
2025-07-30 22:25:05,532
2025-07-30 22:25:05,481
2025-07-30 22:25:05,496
2025-07-30 22:25:05,523
2025-07-30 22:25:05,492
2025-07-30 22:25:05,493
2025-07-30 22:25:05,524
2025-07-30 22:25:05,508
2025-07-30 22:25:05,485
2025-07-30 22:25:05,520
2025-07-30 22:25:05,511
2025-07-30 22:25:05,471
2025-07-30 22:25:05,505
2025-07-30 22:25:05,524
2025-07-30 22:25:05,479
2025-07-30 22:25:05,496
2025-07-30 22:25:05,530
2025-07-30 22:25:05,491
2025-07-30 22:25:05,493
2025-07-30 22:25:05,513
2025-07-30 22:25:05,487
2025-07-30 22:25:05,486
2025-07-30 22:25:05,512
2025-07-30 22:25:05,512
2025-07-30 22:25:05,470
2025-07-30 22:25:05,507
2025-07-30 22:25:05,509
2025-07-30 22:25:05,487
2025-07-30 22:25:05,522
2025-07-30 22:25:05,530
2025-07-30 22:25:05,481
2025-07-30 22:25:05,501
2025-07-30 22:25:05,527
2025-07-30 22:25:05,493
2025-07-30 22:25:05,493
2025-07-30 22:25:05,527
2025-07-30 22:25:05,488
2025-07-30 22:25:05,489
2025-07-30 22:25:05,524
2025-07-30 22:25:05,510
2025-07-30 22:25:05,481
2025-07-30 22:25:05,525
2025-07-30 22:25:05,510
2025-07-30 22:25:05,467
2025-07-30 22:25:05,499
2025-07-30 22:25:05,548
2025-07-30 22:25:05,480
2025-07-30 22:25:05,479
2025-07-30 22:25:05,528
2025-07-30 22:25:05,495
2025-07-30 22:25:05,490
2025-07-30 22:25:05,524
2025-07-30 22:25:05,518
2025-07-30 22:25:05,496
2025-07-30 22:25:05,524
2025-07-30 22:25:05,502
2025-07-30 22:25:05,474
2025-07-30 22:25:05,511
2025-07-30 22:25:05,519
2025-07-30 22:25:05,476
2025-07-30 22:25:05,504
2025-07-30 22:25:05,529
2025-07-30 22:25:05,475
2025-07-30 22:25:05,493
2025-07-30 22:25:05,534
2025-07-30 22:25:05,499
2025-07-30 22:25:05,481
2025-07-30 22:25:05,542
2025-07-30 22:25:05,506
2025-07-30 22:25:05,486
2025-07-30 22:25:05,530
2025-07-30 22:25:05,514
2025-07-30 22:25:05,470
2025-07-30 22:25:05,519
2025-07-30 22:25:05,524
2025-07-30 22:25:05,475
2025-07-30 22:25:05,500
2025-07-30 22:25:05,527
2025-07-30 22:25:05,475
2025-07-30 22:25:05,487
2025-07-30 22:25:05,550
2025-07-30 22:25:05,507
2025-07-30 22:25:05,493
2025-07-30 22:25:05,534
2025-07-30 22:25:05,505
2025-07-30 22:25:05,487
2025-07-30 22:25:05,534
2025-07-30 22:25:05,527
2025-07-30 22:25:05,480
2025-07-30 22:25:05,514
2025-07-30 22:25:05,537
2025-07-30 22:25:05,490
2025-07-30 22:25:05,520
2025-07-30 22:25:05,535
2025-07-30 22:25:05,488
2025-07-30 22:25:05,498
2025-07-30 22:25:05,540
2025-07-30 22:25:05,477
2025-07-30 22:25:05,508
2025-07-30 22:25:05,557
2025-07-30 22:25:05,525
2025-07-30 22:25:05,497
2025-07-30 22:25:05,535
2025-07-30 22:25:05,510
2025-07-30 22:25:05,468
2025-07-30 22:25:05,522
2025-07-30 22:25:05,542
2025-07-30 22:25:05,499
2025-07-30 22:25:05,522
2025-07-30 22:25:05,551
2025-07-30 22:25:05,504
2025-07-30 22:25:05,496
2025-07-30 22:25:05,527
2025-07-30 22:25:05,508
2025-07-30 22:25:05,504
2025-07-30 22:25:05,555
2025-07-30 22:25:05,535
2025-07-30 22:25:05,497
2025-07-30 22:25:05,527
2025-07-30 22:25:05,527
2025-07-30 22:25:05,489
2025-07-30 22:25:05,532
2025-07-30 22:25:05,522
2025-07-30 22:25:05,502
2025-07-30 22:25:05,512
2025-07-30 22:25:05,562
2025-07-30 22:25:05,517
2025-07-30 22:25:05,512
2025-07-30 22:25:05,544
2025-07-30 22:25:05,519
2025-07-30 22:25:05,501
2025-07-30 22:25:05,531
2025-07-30 22:25:05,536
2025-07-30 22:25:05,513
2025-07-30 22:25:05,548
2025-07-30 22:25:06,536
2025-07-30 22:25:06,496
2025-07-30 22:25:06,531
2025-07-30 22:25:06,532
2025-07-30 22:25:06,520
2025-07-30 22:25:06,531
2025-07-30 22:25:06,556
2025-07-30 22:25:06,507
2025-07-30 22:25:06,507
2025-07-30 22:25:06,545
2025-07-30 22:25:06,532
2025-07-30 22:25:06,512
2025-07-30 22:25:06,550
2025-07-30 22:25:06,532
2025-07-30 22:25:06,515
2025-07-30 22:25:06,538
2025-07-30 22:25:06,540
2025-07-30 22:25:06,499
2025-07-30 22:25:06,537
2025-07-30 22:25:06,526
2025-07-30 22:25:06,518
2025-07-30 22:25:06,526
2025-07-30 22:25:06,553
2025-07-30 22:25:06,520
2025-07-30 22:25:06,513
2025-07-30 22:25:06,552
2025-07-30 22:25:06,526
2025-07-30 22:25:06,503
2025-07-30 22:25:06,554
2025-07-30 22:25:06,549
2025-07-30 22:25:06,489
2025-07-30 22:25:06,547
2025-07-30 22:25:06,559
2025-07-30 22:25:06,485
2025-07-30 22:25:06,546
2025-07-30 22:25:06,561
2025-07-30 22:25:06,512
2025-07-30 22:25:06,538
2025-07-30 22:25:06,575
2025-07-30 22:25:06,527
2025-07-30 22:25:06,503
2025-07-30 22:25:06,551
2025-07-30 22:25:06,538
2025-07-30 22:25:06,512
2025-07-30 22:25:06,560
2025-07-30 22:25:06,553
2025-07-30 22:25:06,509
2025-07-30 22:25:06,542
2025-07-30 22:25:06,552
2025-07-30 22:25:06,515
2025-07-30 22:25:06,535
2025-07-30 22:25:06,555
2025-07-30 22:25:06,528
2025-07-30 22:25:06,536
2025-07-30 22:25:06,565
2025-07-30 22:25:06,502
2025-07-30 22:25:06,529
2025-07-30 22:25:06,580
2025-07-30 22:25:06,554
2025-07-30 22:25:06,520
2025-07-30 22:25:06,557
2025-07-30 22:25:06,558
2025-07-30 22:25:06,520
2025-07-30 22:25:06,544
2025-07-30 22:25:06,557
2025-07-30 22:25:06,516
2025-07-30 22:25:06,530
2025-07-30 22:25:06,553
2025-07-30 22:25:06,529
2025-07-30 22:25:06,512
2025-07-30 22:25:06,575
2025-07-30 22:25:06,538
2025-07-30 22:25:06,519
2025-07-30 22:25:06,554
2025-07-30 22:25:06,545
2025-07-30 22:25:06,505
2025-07-30 22:25:06,564
2025-07-30 22:25:06,570
2025-07-30 22:25:06,519
2025-07-30 22:25:06,558
2025-07-30 22:25:06,559
2025-07-30 22:25:06,519
2025-07-30 22:25:06,539
2025-07-30 22:25:06,572
2025-07-30 22:25:06,533
2025-07-30 22:25:06,525
2025-07-30 22:25:06,560
2025-07-30 22:25:06,538
2025-07-30 22:25:06,521
2025-07-30 22:25:06,569
2025-07-30 22:25:06,541
2025-07-30 22:25:06,507
2025-07-30 22:25:06,566
2025-07-30 22:25:06,555
2025-07-30 22:25:06,508
2025-07-30 22:25:06,541
2025-07-30 22:25:06,572
2025-07-30 22:25:06,510
2025-07-30 22:25:06,540
2025-07-30 22:25:06,570
2025-07-30 22:25:06,529
2025-07-30 22:25:06,523
2025-07-30 22:25:06,558
2025-07-30 22:25:06,536
2025-07-30 22:25:06,512
2025-07-30 22:25:06,558
2025-07-30 22:25:06,555
2025-07-30 22:25:06,512
2025-07-30 22:25:06,550
2025-07-30 22:25:06,565
2025-07-30 22:25:06,528
2025-07-30 22:25:06,552
2025-07-30 22:25:06,571
2025-07-30 22:25:06,528
2025-07-30 22:25:06,527
2025-07-30 22:25:06,552
2025-07-30 22:25:06,531
2025-07-30 22:25:06,539
2025-07-30 22:25:06,572
2025-07-30 22:25:06,530
2025-07-30 22:25:06,515
2025-07-30 22:25:06,568
2025-07-30 22:25:06,564
2025-07-30 22:25:06,519
2025-07-30 22:25:06,553
2025-07-30 22:25:06,546
2025-07-30 22:25:06,519
2025-07-30 22:25:06,549
2025-07-30 22:25:06,576
2025-07-30 22:25:06,535
2025-07-30 22:25:06,533
2025-07-30 22:25:06,557
2025-07-30 22:25:06,533
2025-07-30 22:25:06,530
2025-07-30 22:25:06,573
2025-07-30 22:25:06,547
2025-07-30 22:25:06,518
2025-07-30 22:25:06,547
2025-07-30 22:25:06,554
2025-07-30 22:25:06,526
2025-07-30 22:25:06,553
2025-07-30 22:25:06,567
2025-07-30 22:25:06,517
2025-07-30 22:25:06,540
2025-07-30 22:25:06,575
2025-07-30 22:25:06,532
2025-07-30 22:25:06,534
2025-07-30 22:25:06,557
2025-07-30 22:25:06,536
2025-07-30 22:25:06,526
2025-07-30 22:25:06,571
2025-07-30 22:25:06,551
2025-07-30 22:25:06,518
2025-07-30 22:25:06,549
2025-07-30 22:25:06,559
2025-07-30 22:25:06,526
2025-07-30 22:25:06,552
2025-07-30 22:25:06,561
2025-07-30 22:25:06,511
2025-07-30 22:25:06,547
2025-07-30 22:25:06,576
2025-07-30 22:25:06,528
2025-07-30 22:25:06,529
2025-07-30 22:25:06,567
2025-07-30 22:25:06,539
2025-07-30 22:25:06,507
2025-07-30 22:25:06,567
2025-07-30 22:25:06,545
2025-07-30 22:25:06,525
2025-07-30 22:25:06,567
2025-07-30 22:25:06,554
2025-07-30 22:25:06,521
2025-07-30 22:25:06,558
2025-07-30 22:25:06,553
2025-07-30 22:25:06,530
2025-07-30 22:25:06,533
2025-07-30 22:25:06,569
2025-07-30 22:25:06,532
2025-07-30 22:25:06,525
2025-07-30 22:25:06,571
2025-07-30 22:25:06,527
2025-07-30 22:25:06,518
2025-07-30 22:25:06,564
2025-07-30 22:25:06,542
2025-07-30 22:25:06,517
2025-07-30 22:25:06,558
2025-07-30 22:25:06,552
2025-07-30 22:25:06,508
2025-07-30 22:25:06,544
2025-07-30 22:25:06,543
2025-07-30 22:25:06,515
2025-07-30 22:25:07,542
2025-07-30 22:25:07,564
2025-07-30 22:25:07,532
2025-07-30 22:25:07,516
2025-07-30 22:25:07,551
2025-07-30 22:25:07,537
2025-07-30 22:25:07,530
2025-07-30 22:25:07,570
2025-07-30 22:25:07,549
2025-07-30 22:25:07,520
2025-07-30 22:25:07,559
2025-07-30 22:25:07,552
2025-07-30 22:25:07,514
2025-07-30 22:25:07,542
2025-07-30 22:25:07,560
2025-07-30 22:25:07,519
2025-07-30 22:25:07,543
2025-07-30 22:25:07,571
2025-07-30 22:25:07,514
2025-07-30 22:25:07,534
2025-07-30 22:25:07,572
2025-07-30 22:25:07,547
2025-07-30 22:25:07,522
2025-07-30 22:25:07,561
2025-07-30 22:25:07,545
2025-07-30 22:25:07,518
2025-07-30 22:25:07,551
2025-07-30 22:25:07,553
2025-07-30 22:25:07,504
2025-07-30 22:25:07,552
2025-07-30 22:25:07,579
2025-07-30 22:25:07,525
2025-07-30 22:25:07,529
2025-07-30 22:25:07,567
2025-07-30 22:25:07,531
2025-07-30 22:25:07,523
2025-07-30 22:25:07,558
2025-07-30 22:25:07,540
2025-07-30 22:25:07,509
2025-07-30 22:25:07,563
2025-07-30 22:25:07,555
2025-07-30 22:25:07,519
2025-07-30 22:25:07,559
2025-07-30 22:25:07,562
2025-07-30 22:25:07,512
2025-07-30 22:25:07,544
2025-07-30 22:25:07,560
2025-07-30 22:25:07,506
2025-07-30 22:25:07,516
2025-07-30 22:25:07,571
2025-07-30 22:25:07,534
2025-07-30 22:25:07,516
2025-07-30 22:25:07,561
2025-07-30 22:25:07,536
2025-07-30 22:25:07,519
2025-07-30 22:25:07,544
2025-07-30 22:25:07,534
2025-07-30 22:25:07,504
2025-07-30 22:25:07,545
2025-07-30 22:25:07,559
2025-07-30 22:25:07,512
2025-07-30 22:25:07,542
2025-07-30 22:25:07,566
2025-07-30 22:25:07,523
2025-07-30 22:25:07,520
2025-07-30 22:25:07,561
2025-07-30 22:25:07,515
2025-07-30 22:25:07,510
2025-07-30 22:25:07,555
2025-07-30 22:25:07,528
2025-07-30 22:25:07,510
2025-07-30 22:25:07,564
2025-07-30 22:25:07,555
2025-07-30 22:25:07,506
2025-07-30 22:25:07,538
2025-07-30 22:25:07,549
2025-07-30 22:25:07,508
2025-07-30 22:25:07,539
2025-07-30 22:25:07,560
2025-07-30 22:25:07,509
2025-07-30 22:25:07,517
2025-07-30 22:25:07,553
2025-07-30 22:25:07,503
2025-07-30 22:25:07,515
2025-07-30 22:25:07,564
2025-07-30 22:25:07,535
2025-07-30 22:25:07,501
2025-07-30 22:25:07,552
2025-07-30 22:25:07,549
2025-07-30 22:25:07,500
2025-07-30 22:25:07,534
2025-07-30 22:25:07,545
2025-07-30 22:25:07,513
2025-07-30 22:25:07,542
2025-07-30 22:25:07,543
2025-07-30 22:25:07,504
2025-07-30 22:25:07,518
2025-07-30 22:25:07,547
2025-07-30 22:25:07,517
2025-07-30 22:25:07,502
2025-07-30 22:25:07,543
2025-07-30 22:25:07,536
2025-07-30 22:25:07,505
2025-07-30 22:25:07,525
2025-07-30 22:25:07,539
2025-07-30 22:25:07,496
2025-07-30 22:25:07,536
2025-07-30 22:25:07,551
2025-07-30 22:25:07,500
2025-07-30 22:25:07,517
2025-07-30 22:25:07,544
2025-07-30 22:25:07,500
2025-07-30 22:25:07,512
2025-07-30 22:25:07,555
2025-07-30 22:25:07,527
2025-07-30 22:25:07,497
2025-07-30 22:25:07,540
2025-07-30 22:25:07,530
2025-07-30 22:25:07,498
2025-07-30 22:25:07,540
2025-07-30 22:25:07,536
2025-07-30 22:25:07,496
2025-07-30 22:25:07,527
2025-07-30 22:25:07,552
2025-07-30 22:25:07,502
2025-07-30 22:25:07,510
2025-07-30 22:25:07,552
2025-07-30 22:25:07,507
2025-07-30 22:25:07,499
2025-07-30 22:25:07,540
2025-07-30 22:25:07,521
2025-07-30 22:25:07,507
2025-07-30 22:25:07,552
2025-07-30 22:25:07,533
2025-07-30 22:25:07,488
2025-07-30 22:25:07,529
2025-07-30 22:25:07,545
2025-07-30 22:25:07,503
2025-07-30 22:25:07,519
2025-07-30 22:25:07,534
2025-07-30 22:25:07,494
2025-07-30 22:25:07,514
2025-07-30 22:25:07,547
2025-07-30 22:25:07,514
2025-07-30 22:25:07,507
2025-07-30 22:25:07,547
2025-07-30 22:25:07,522
2025-07-30 22:25:07,492
2025-07-30 22:25:07,542
2025-07-30 22:25:07,539
2025-07-30 22:25:07,496
2025-07-30 22:25:07,533
2025-07-30 22:25:07,541
2025-07-30 22:25:07,493
2025-07-30 22:25:07,515
2025-07-30 22:25:07,539
2025-07-30 22:25:07,506
2025-07-30 22:25:07,515
2025-07-30 22:25:07,542
2025-07-30 22:25:07,507
2025-07-30 22:25:07,505
2025-07-30 22:25:07,542
2025-07-30 22:25:07,518
2025-07-30 22:25:07,486
2025-07-30 22:25:07,546
2025-07-30 22:25:07,539
2025-07-30 22:25:07,493
2025-07-30 22:25:07,524
2025-07-30 22:25:07,538
2025-07-30 22:25:07,489
2025-07-30 22:25:07,516
2025-07-30 22:25:07,542
2025-07-30 22:25:07,489
2025-07-30 22:25:07,508
2025-07-30 22:25:07,551
2025-07-30 22:25:07,513
2025-07-30 22:25:07,496
2025-07-30 22:25:07,545
2025-07-30 22:25:07,520
2025-07-30 22:25:07,490
2025-07-30 22:25:07,527
2025-07-30 22:25:07,532
2025-07-30 22:25:07,497
2025-07-30 22:25:07,516
2025-07-30 22:25:07,550
2025-07-30 22:25:07,504
2025-07-30 22:25:07,511
2025-07-30 22:25:07,543
2025-07-30 22:25:07,507
2025-07-30 22:25:07,504
2025-07-30 22:25:07,552
2025-07-30 22:25:07,519
2025-07-30 22:25:07,489
2025-07-30 22:25:07,532
2025-07-30 22:25:08,527
2025-07-30 22:25:08,504
2025-07-30 22:25:08,543
2025-07-30 22:25:08,537
2025-07-30 22:25:08,496
2025-07-30 22:25:08,518
2025-07-30 22:25:08,539
2025-07-30 22:25:08,495
2025-07-30 22:25:08,512
2025-07-30 22:25:08,531
2025-07-30 22:25:08,510
2025-07-30 22:25:08,510
2025-07-30 22:25:08,541
2025-07-30 22:25:08,511
2025-07-30 22:25:08,492
2025-07-30 22:25:08,530
2025-07-30 22:25:08,531
2025-07-30 22:25:08,490
2025-07-30 22:25:08,524
2025-07-30 22:25:08,534
2025-07-30 22:25:08,485
2025-07-30 22:25:08,514
2025-07-30 22:25:08,546
2025-07-30 22:25:08,499
2025-07-30 22:25:08,495
2025-07-30 22:25:08,533
2025-07-30 22:25:08,505
2025-07-30 22:25:08,497
2025-07-30 22:25:08,531
2025-07-30 22:25:08,509
2025-07-30 22:25:08,492
2025-07-30 22:25:08,540
2025-07-30 22:25:08,514
2025-07-30 22:25:08,474
2025-07-30 22:25:08,512
2025-07-30 22:25:08,522
2025-07-30 22:25:08,495
2025-07-30 22:25:08,518
2025-07-30 22:25:08,532
2025-07-30 22:25:08,500
2025-07-30 22:25:08,502
2025-07-30 22:25:08,530
2025-07-30 22:25:08,498
2025-07-30 22:25:08,478
2025-07-30 22:25:08,530
2025-07-30 22:25:08,512
2025-07-30 22:25:08,480
2025-07-30 22:25:08,529
2025-07-30 22:25:08,528
2025-07-30 22:25:08,481
2025-07-30 22:25:08,518
2025-07-30 22:25:08,519
2025-07-30 22:25:08,494
2025-07-30 22:25:08,509
2025-07-30 22:25:08,526
2025-07-30 22:25:08,494
2025-07-30 22:25:08,498
2025-07-30 22:25:08,536
2025-07-30 22:25:08,501
2025-07-30 22:25:08,483
2025-07-30 22:25:08,527
2025-07-30 22:25:08,515
2025-07-30 22:25:08,481
2025-07-30 22:25:08,499
2025-07-30 22:25:08,509
2025-07-30 22:25:08,494
2025-07-30 22:25:08,517
2025-07-30 22:25:08,510
2025-07-30 22:25:08,472
2025-07-30 22:25:08,490
2025-07-30 22:25:08,529
2025-07-30 22:25:08,490
2025-07-30 22:25:08,486
2025-07-30 22:25:08,521
2025-07-30 22:25:08,496
2025-07-30 22:25:08,486
2025-07-30 22:25:08,541
2025-07-30 22:25:08,508
2025-07-30 22:25:08,473
2025-07-30 22:25:08,497
2025-07-30 22:25:08,522
2025-07-30 22:25:08,499
2025-07-30 22:25:08,500
2025-07-30 22:25:08,509
2025-07-30 22:25:08,486
2025-07-30 22:25:08,526
2025-07-30 22:25:08,539
2025-07-30 22:25:08,496
2025-07-30 22:25:08,493
2025-07-30 22:25:08,534
2025-07-30 22:25:08,482
2025-07-30 22:25:08,482
2025-07-30 22:25:08,528
2025-07-30 22:25:08,517
2025-07-30 22:25:08,481
2025-07-30 22:25:08,527
2025-07-30 22:25:08,518
2025-07-30 22:25:08,480
2025-07-30 22:25:08,516
2025-07-30 22:25:08,517
2025-07-30 22:25:08,488
2025-07-30 22:25:08,497
2025-07-30 22:25:08,525
2025-07-30 22:25:08,482
2025-07-30 22:25:08,486
2025-07-30 22:25:08,534
2025-07-30 22:25:08,511
2025-07-30 22:25:08,491
2025-07-30 22:25:08,536
2025-07-30 22:25:08,516
2025-07-30 22:25:08,479
2025-07-30 22:25:08,515
2025-07-30 22:25:08,522
2025-07-30 22:25:08,483
2025-07-30 22:25:08,509
2025-07-30 22:25:08,528
2025-07-30 22:25:08,475
2025-07-30 22:25:08,499
2025-07-30 22:25:08,545
2025-07-30 22:25:08,509
2025-07-30 22:25:08,494
2025-07-30 22:25:08,532
2025-07-30 22:25:08,497
2025-07-30 22:25:08,470
2025-07-30 22:25:08,533
2025-07-30 22:25:08,525
2025-07-30 22:25:08,498
2025-07-30 22:25:08,522
2025-07-30 22:25:08,521
2025-07-30 22:25:08,492
2025-07-30 22:25:08,511
2025-07-30 22:25:08,539
2025-07-30 22:25:08,500
2025-07-30 22:25:08,502
2025-07-30 22:25:08,523
2025-07-30 22:25:08,506
2025-07-30 22:25:08,482
2025-07-30 22:25:08,538
2025-07-30 22:25:08,516
2025-07-30 22:25:08,484
2025-07-30 22:25:08,527
2025-07-30 22:25:08,519
2025-07-30 22:25:08,476
2025-07-30 22:25:08,525
2025-07-30 22:25:08,541
2025-07-30 22:25:08,496
2025-07-30 22:25:08,510
2025-07-30 22:25:08,533
2025-07-30 22:25:08,491
2025-07-30 22:25:08,507
2025-07-30 22:25:08,537
2025-07-30 22:25:08,495
2025-07-30 22:25:08,489
2025-07-30 22:25:08,525
2025-07-30 22:25:08,516
2025-07-30 22:25:08,491
2025-07-30 22:25:08,525
2025-07-30 22:25:08,533
2025-07-30 22:25:08,493
2025-07-30 22:25:08,528
2025-07-30 22:25:08,528
2025-07-30 22:25:08,475
2025-07-30 22:25:08,510
2025-07-30 22:25:08,543
2025-07-30 22:25:08,494
2025-07-30 22:25:08,499
2025-07-30 22:25:08,534
2025-07-30 22:25:08,503
2025-07-30 22:25:08,493
2025-07-30 22:25:08,532
2025-07-30 22:25:08,514
2025-07-30 22:25:08,488
2025-07-30 22:25:08,525
2025-07-30 22:25:08,520
2025-07-30 22:25:08,480
2025-07-30 22:25:08,522
2025-07-30 22:25:08,540
2025-07-30 22:25:08,489
2025-07-30 22:25:08,501
2025-07-30 22:25:08,533
2025-07-30 22:25:08,483
2025-07-30 22:25:08,500
2025-07-30 22:25:08,536
2025-07-30 22:25:08,502
2025-07-30 22:25:08,476
2025-07-30 22:25:08,513
2025-07-30 22:25:08,521
2025-07-30 22:25:08,488
2025-07-30 22:25:08,522
2025-07-30 22:25:08,526
2025-07-30 22:25:09,484
2025-07-30 22:25:09,519
2025-07-30 22:25:09,538
2025-07-30 22:25:09,485
2025-07-30 22:25:09,499
2025-07-30 22:25:09,526
2025-07-30 22:25:09,492
2025-07-30 22:25:09,496
2025-07-30 22:25:09,530
2025-07-30 22:25:09,500
2025-07-30 22:25:09,493
2025-07-30 22:25:09,536
2025-07-30 22:25:09,516
2025-07-30 22:25:09,482
2025-07-30 22:25:09,513
2025-07-30 22:25:09,526
2025-07-30 22:25:09,477
2025-07-30 22:25:09,505
2025-07-30 22:25:09,516
2025-07-30 22:25:09,493
2025-07-30 22:25:09,500
2025-07-30 22:25:09,524
2025-07-30 22:25:09,494
2025-07-30 22:25:09,500
2025-07-30 22:25:09,544
2025-07-30 22:25:09,509
2025-07-30 22:25:09,482
2025-07-30 22:25:09,527
2025-07-30 22:25:09,520
2025-07-30 22:25:09,485
2025-07-30 22:25:09,517
2025-07-30 22:25:09,521
2025-07-30 22:25:09,486
2025-07-30 22:25:09,506
2025-07-30 22:25:09,541
2025-07-30 22:25:09,496
2025-07-30 22:25:09,494
2025-07-30 22:25:09,537
2025-07-30 22:25:09,497
2025-07-30 22:25:09,492
2025-07-30 22:25:09,534
2025-07-30 22:25:09,514
2025-07-30 22:25:09,481
2025-07-30 22:25:09,535
2025-07-30 22:25:09,519
2025-07-30 22:25:09,480
2025-07-30 22:25:09,516
2025-07-30 22:25:09,537
2025-07-30 22:25:09,487
2025-07-30 22:25:09,507
2025-07-30 22:25:09,541
2025-07-30 22:25:09,495
2025-07-30 22:25:09,507
2025-07-30 22:25:09,538
2025-07-30 22:25:09,497
2025-07-30 22:25:09,490
2025-07-30 22:25:09,524
2025-07-30 22:25:09,507
2025-07-30 22:25:09,471
2025-07-30 22:25:09,526
2025-07-30 22:25:09,527
2025-07-30 22:25:09,489
2025-07-30 22:25:09,520
2025-07-30 22:25:09,530
2025-07-30 22:25:09,484
2025-07-30 22:25:09,497
2025-07-30 22:25:09,538
2025-07-30 22:25:09,501
2025-07-30 22:25:09,500
2025-07-30 22:25:09,526
2025-07-30 22:25:09,508
2025-07-30 22:25:09,491
2025-07-30 22:25:09,536
2025-07-30 22:25:09,515
2025-07-30 22:25:09,486
2025-07-30 22:25:09,517
2025-07-30 22:25:09,521
2025-07-30 22:25:09,484
2025-07-30 22:25:09,509
2025-07-30 22:25:09,533
2025-07-30 22:25:09,488
2025-07-30 22:25:09,511
2025-07-30 22:25:09,540
2025-07-30 22:25:09,498
2025-07-30 22:25:09,495
2025-07-30 22:25:09,536
2025-07-30 22:25:09,512
2025-07-30 22:25:09,488
2025-07-30 22:25:09,527
2025-07-30 22:25:09,516
2025-07-30 22:25:09,483
2025-07-30 22:25:09,531
2025-07-30 22:25:09,520
2025-07-30 22:25:09,476
2025-07-30 22:25:09,514
2025-07-30 22:25:09,538
2025-07-30 22:25:09,494
2025-07-30 22:25:09,502
2025-07-30 22:25:09,538
2025-07-30 22:25:09,499
2025-07-30 22:25:09,489
2025-07-30 22:25:09,514
2025-07-30 22:25:09,511
2025-07-30 22:25:09,488
2025-07-30 22:25:09,531
2025-07-30 22:25:09,524
2025-07-30 22:25:09,481
2025-07-30 22:25:09,519
2025-07-30 22:25:09,520
2025-07-30 22:25:09,489
2025-07-30 22:25:09,516
2025-07-30 22:25:09,534
2025-07-30 22:25:09,496
2025-07-30 22:25:09,501
2025-07-30 22:25:09,536
2025-07-30 22:25:09,494
2025-07-30 22:25:09,478
2025-07-30 22:25:09,529
2025-07-30 22:25:09,514
2025-07-30 22:25:09,483
2025-07-30 22:25:09,524
2025-07-30 22:25:09,522
2025-07-30 22:25:09,482
2025-07-30 22:25:09,515
2025-07-30 22:25:09,526
2025-07-30 22:25:09,491
2025-07-30 22:25:09,503
2025-07-30 22:25:09,529
2025-07-30 22:25:09,485
2025-07-30 22:25:09,491
2025-07-30 22:25:09,527
2025-07-30 22:25:09,495
2025-07-30 22:25:09,487
2025-07-30 22:25:09,529
2025-07-30 22:25:09,515
2025-07-30 22:25:09,486
2025-07-30 22:25:09,516
2025-07-30 22:25:09,516
2025-07-30 22:25:09,461
2025-07-30 22:25:09,527
2025-07-30 22:25:09,527
2025-07-30 22:25:09,477
2025-07-30 22:25:09,497
2025-07-30 22:25:09,525
2025-07-30 22:25:09,500
2025-07-30 22:25:09,496
2025-07-30 22:25:09,523
2025-07-30 22:25:09,505
2025-07-30 22:25:09,488
2025-07-30 22:25:09,528
2025-07-30 22:25:09,505
2025-07-30 22:25:09,486
2025-07-30 22:25:09,522
2025-07-30 22:25:09,518
2025-07-30 22:25:09,478
2025-07-30 22:25:09,515
2025-07-30 22:25:09,523
2025-07-30 22:25:09,485
2025-07-30 22:25:09,503
2025-07-30 22:25:09,521
2025-07-30 22:25:09,493
2025-07-30 22:25:09,490
2025-07-30 22:25:09,531
2025-07-30 22:25:09,481
2025-07-30 22:25:09,475
2025-07-30 22:25:09,539
2025-07-30 22:25:09,518
2025-07-30 22:25:09,474
2025-07-30 22:25:09,510
2025-07-30 22:25:09,510
2025-07-30 22:25:09,476
2025-07-30 22:25:09,518
2025-07-30 22:25:09,533
2025-07-30 22:25:09,487
2025-07-30 22:25:09,498
2025-07-30 22:25:09,529
2025-07-30 22:25:09,489
2025-07-30 22:25:09,487
2025-07-30 22:25:09,526
2025-07-30 22:25:09,511
2025-07-30 22:25:09,489
2025-07-30 22:25:09,522
2025-07-30 22:25:09,508
2025-07-30 22:25:09,477
2025-07-30 22:25:09,523
2025-07-30 22:25:09,526
2025-07-30 22:25:09,480
2025-07-30 22:25:09,498
2025-07-30 22:25:09,523
2025-07-30 22:25:09,478
2025-07-30 22:25:09,499
2025-07-30 22:25:09,531
2025-07-30 22:25:09,486
2025-07-30 22:25:09,489
2025-07-30 22:25:10,525
2025-07-30 22:25:10,498
2025-07-30 22:25:10,469
2025-07-30 22:25:10,527
2025-07-30 22:25:10,520
2025-07-30 22:25:10,474
2025-07-30 22:25:10,519
2025-07-30 22:25:10,529
2025-07-30 22:25:10,484
2025-07-30 22:25:10,504
2025-07-30 22:25:10,528
2025-07-30 22:25:10,491
2025-07-30 22:25:10,489
2025-07-30 22:25:10,527
2025-07-30 22:25:10,506
2025-07-30 22:25:10,492
2025-07-30 22:25:10,530
2025-07-30 22:25:10,502
2025-07-30 22:25:10,475
2025-07-30 22:25:10,523
2025-07-30 22:25:10,510
2025-07-30 22:25:10,477
2025-07-30 22:25:10,527
2025-07-30 22:25:10,528
2025-07-30 22:25:10,486
2025-07-30 22:25:10,510
2025-07-30 22:25:10,533
2025-07-30 22:25:10,488
2025-07-30 22:25:10,494
2025-07-30 22:25:10,530
2025-07-30 22:25:10,497
2025-07-30 22:25:10,479
2025-07-30 22:25:10,526
2025-07-30 22:25:10,497
2025-07-30 22:25:10,489
2025-07-30 22:25:10,526
2025-07-30 22:25:10,517
2025-07-30 22:25:10,484
2025-07-30 22:25:10,522
2025-07-30 22:25:10,534
2025-07-30 22:25:10,486
2025-07-30 22:25:10,502
2025-07-30 22:25:10,522
2025-07-30 22:25:10,496
2025-07-30 22:25:10,492
2025-07-30 22:25:10,536
2025-07-30 22:25:10,502
2025-07-30 22:25:10,491
2025-07-30 22:25:10,532
2025-07-30 22:25:10,507
2025-07-30 22:25:10,478
2025-07-30 22:25:10,513
2025-07-30 22:25:10,528
2025-07-30 22:25:10,485
2025-07-30 22:25:10,513
2025-07-30 22:25:10,522
2025-07-30 22:25:10,483
2025-07-30 22:25:10,508
2025-07-30 22:25:10,547
2025-07-30 22:25:10,502
2025-07-30 22:25:10,500
2025-07-30 22:25:10,536
2025-07-30 22:25:10,492
2025-07-30 22:25:10,477
2025-07-30 22:25:10,532
2025-07-30 22:25:10,520
2025-07-30 22:25:10,489
2025-07-30 22:25:10,528
2025-07-30 22:25:10,521
2025-07-30 22:25:10,483
2025-07-30 22:25:10,518
2025-07-30 22:25:10,527
2025-07-30 22:25:10,488
2025-07-30 22:25:10,505
2025-07-30 22:25:10,531
2025-07-30 22:25:10,501
2025-07-30 22:25:10,498
2025-07-30 22:25:10,537
2025-07-30 22:25:10,502
2025-07-30 22:25:10,479
2025-07-30 22:25:10,534
2025-07-30 22:25:10,519
2025-07-30 22:25:10,484
2025-07-30 22:25:10,526
2025-07-30 22:25:10,527
2025-07-30 22:25:10,483
2025-07-30 22:25:10,505
2025-07-30 22:25:10,530
2025-07-30 22:25:10,503
2025-07-30 22:25:10,511
2025-07-30 22:25:10,534
2025-07-30 22:25:10,494
2025-07-30 22:25:10,496
2025-07-30 22:25:10,544
2025-07-30 22:25:10,509
2025-07-30 22:25:10,486
2025-07-30 22:25:10,532
2025-07-30 22:25:10,517
2025-07-30 22:25:10,479
2025-07-30 22:25:10,508
2025-07-30 22:25:10,526
2025-07-30 22:25:10,491
2025-07-30 22:25:10,518
2025-07-30 22:25:10,533
2025-07-30 22:25:10,487
2025-07-30 22:25:10,503
2025-07-30 22:25:10,530
2025-07-30 22:25:10,504
2025-07-30 22:25:10,504
2025-07-30 22:25:10,540
2025-07-30 22:25:10,513
2025-07-30 22:25:10,487
2025-07-30 22:25:10,527
2025-07-30 22:25:10,525
2025-07-30 22:25:10,487
2025-07-30 22:25:10,518
2025-07-30 22:25:10,533
2025-07-30 22:25:10,488
2025-07-30 22:25:10,512
2025-07-30 22:25:10,538
2025-07-30 22:25:10,501
2025-07-30 22:25:10,503
2025-07-30 22:25:10,538
2025-07-30 22:25:10,497
2025-07-30 22:25:10,485
2025-07-30 22:25:10,538
2025-07-30 22:25:10,511
2025-07-30 22:25:10,494
2025-07-30 22:25:10,527
2025-07-30 22:25:10,524
2025-07-30 22:25:10,497
2025-07-30 22:25:10,523
2025-07-30 22:25:10,534
2025-07-30 22:25:10,489
2025-07-30 22:25:10,508
2025-07-30 22:25:10,536
2025-07-30 22:25:10,493
2025-07-30 22:25:10,510
2025-07-30 22:25:10,544
2025-07-30 22:25:10,511
2025-07-30 22:25:10,491
2025-07-30 22:25:10,523
2025-07-30 22:25:10,520
2025-07-30 22:25:10,493
2025-07-30 22:25:10,530
2025-07-30 22:25:10,516
2025-07-30 22:25:10,489
2025-07-30 22:25:10,527
2025-07-30 22:25:10,526
2025-07-30 22:25:10,488
2025-07-30 22:25:10,508
2025-07-30 22:25:10,541
2025-07-30 22:25:10,493
2025-07-30 22:25:10,489
2025-07-30 22:25:10,543
2025-07-30 22:25:10,516
2025-07-30 22:25:10,488
2025-07-30 22:25:10,542
2025-07-30 22:25:10,522
2025-07-30 22:25:10,494
2025-07-30 22:25:10,525
2025-07-30 22:25:10,529
2025-07-30 22:25:10,492
2025-07-30 22:25:10,517
2025-07-30 22:25:10,527
2025-07-30 22:25:10,496
2025-07-30 22:25:10,525
2025-07-30 22:25:10,547
2025-07-30 22:25:10,504
2025-07-30 22:25:10,501
2025-07-30 22:25:10,531
2025-07-30 22:25:10,513
2025-07-30 22:25:10,490
2025-07-30 22:25:10,524
2025-07-30 22:25:10,522
2025-07-30 22:25:10,499
2025-07-30 22:25:10,516
2025-07-30 22:25:10,534
2025-07-30 22:25:10,513
2025-07-30 22:25:10,530
2025-07-30 22:25:10,537
2025-07-30 22:25:10,469
2025-07-30 22:25:10,494
2025-07-30 22:25:10,547
2025-07-30 22:25:10,504
2025-07-30 22:25:10,509
2025-07-30 22:25:10,546
2025-07-30 22:25:10,506
2025-07-30 22:25:10,504
2025-07-30 22:25:10,545
2025-07-30 22:25:10,523
2025-07-30 22:25:10,500
2025-07-30 22:25:10,535
2025-07-30 22:25:11,529
2025-07-30 22:25:11,496
2025-07-30 22:25:11,525
2025-07-30 22:25:11,526
2025-07-30 22:25:11,488
2025-07-30 22:25:11,516
2025-07-30 22:25:11,555
2025-07-30 22:25:11,508
2025-07-30 22:25:11,526
2025-07-30 22:25:11,560
2025-07-30 22:25:11,522
2025-07-30 22:25:11,480
2025-07-30 22:25:11,534
2025-07-30 22:25:11,510
2025-07-30 22:25:11,491
2025-07-30 22:25:11,535
2025-07-30 22:25:11,515
2025-07-30 22:25:11,491
2025-07-30 22:25:11,535
2025-07-30 22:25:11,560
2025-07-30 22:25:11,500
2025-07-30 22:25:11,515
2025-07-30 22:25:11,551
2025-07-30 22:25:11,504
2025-07-30 22:25:11,495
2025-07-30 22:25:11,551
2025-07-30 22:25:11,512
2025-07-30 22:25:11,473
2025-07-30 22:25:11,544
2025-07-30 22:25:11,540
2025-07-30 22:25:11,497
2025-07-30 22:25:11,533
2025-07-30 22:25:11,547
2025-07-30 22:25:11,492
2025-07-30 22:25:11,499
2025-07-30 22:25:11,551
2025-07-30 22:25:11,510
2025-07-30 22:25:11,509
2025-07-30 22:25:11,554
2025-07-30 22:25:11,516
2025-07-30 22:25:11,491
2025-07-30 22:25:11,537
2025-07-30 22:25:11,516
2025-07-30 22:25:11,511
2025-07-30 22:25:11,543
2025-07-30 22:25:11,523
2025-07-30 22:25:11,495
2025-07-30 22:25:11,527
2025-07-30 22:25:11,526
2025-07-30 22:25:11,506
2025-07-30 22:25:11,521
2025-07-30 22:25:11,543
2025-07-30 22:25:11,489
2025-07-30 22:25:11,513
2025-07-30 22:25:11,555
2025-07-30 22:25:11,510
2025-07-30 22:25:11,476
2025-07-30 22:25:11,534
2025-07-30 22:25:11,518
2025-07-30 22:25:11,496
2025-07-30 22:25:11,525
2025-07-30 22:25:11,527
2025-07-30 22:25:11,466
2025-07-30 22:25:11,500
2025-07-30 22:25:11,539
2025-07-30 22:25:11,494
2025-07-30 22:25:11,496
2025-07-30 22:25:11,511
2025-07-30 22:25:11,479
2025-07-30 22:25:11,509
2025-07-30 22:25:11,548
2025-07-30 22:25:11,528
2025-07-30 22:25:11,503
2025-07-30 22:25:11,527
2025-07-30 22:25:11,497
2025-07-30 22:25:11,468
2025-07-30 22:25:11,523
2025-07-30 22:25:11,529
2025-07-30 22:25:11,482
2025-07-30 22:25:11,510
2025-07-30 22:25:11,522
2025-07-30 22:25:11,474
2025-07-30 22:25:11,500
2025-07-30 22:25:11,531
2025-07-30 22:25:11,501
2025-07-30 22:25:11,497
2025-07-30 22:25:11,522
2025-07-30 22:25:11,487
2025-07-30 22:25:11,447
2025-07-30 22:25:11,519
2025-07-30 22:25:11,518
2025-07-30 22:25:11,487
2025-07-30 22:25:11,511
2025-07-30 22:25:11,530
2025-07-30 22:25:11,491
2025-07-30 22:25:11,478
2025-07-30 22:25:11,538
2025-07-30 22:25:11,486
2025-07-30 22:25:11,505
2025-07-30 22:25:11,529
2025-07-30 22:25:11,487
2025-07-30 22:25:11,479
2025-07-30 22:25:11,519
2025-07-30 22:25:11,492
2025-07-30 22:25:11,470
2025-07-30 22:25:11,536
2025-07-30 22:25:11,518
2025-07-30 22:25:11,482
2025-07-30 22:25:11,517
2025-07-30 22:25:11,497
2025-07-30 22:25:11,403
2025-07-30 22:25:11,522
2025-07-30 22:25:11,534
2025-07-30 22:25:11,488
2025-07-30 22:25:11,498
2025-07-30 22:25:11,530
2025-07-30 22:25:11,483
2025-07-30 22:25:11,476
2025-07-30 22:25:11,522
2025-07-30 22:25:11,486
2025-07-30 22:25:11,465
2025-07-30 22:25:11,528
2025-07-30 22:25:11,513
2025-07-30 22:25:11,453
2025-07-30 22:25:11,502
2025-07-30 22:25:11,515
2025-07-30 22:25:11,473
2025-07-30 22:25:11,498
2025-07-30 22:25:11,508
2025-07-30 22:25:11,467
2025-07-30 22:25:11,490
2025-07-30 22:25:11,519
2025-07-30 22:25:11,494
2025-07-30 22:25:11,481
2025-07-30 22:25:11,520
2025-07-30 22:25:11,501
2025-07-30 22:25:11,446
2025-07-30 22:25:11,518
2025-07-30 22:25:11,513
2025-07-30 22:25:11,474
2025-07-30 22:25:11,491
2025-07-30 22:25:11,501
2025-07-30 22:25:11,474
2025-07-30 22:25:11,494
2025-07-30 22:25:11,517
2025-07-30 22:25:11,473
2025-07-30 22:25:11,477
2025-07-30 22:25:11,521
2025-07-30 22:25:11,478
2025-07-30 22:25:11,459
2025-07-30 22:25:11,518
2025-07-30 22:25:11,498
2025-07-30 22:25:11,474
2025-07-30 22:25:11,506
2025-07-30 22:25:11,514
2025-07-30 22:25:11,480
2025-07-30 22:25:11,502
2025-07-30 22:25:11,509
2025-07-30 22:25:11,477
2025-07-30 22:25:11,483
2025-07-30 22:25:11,521
2025-07-30 22:25:11,484
2025-07-30 22:25:11,474
2025-07-30 22:25:11,511
2025-07-30 22:25:11,485
2025-07-30 22:25:11,470
2025-07-30 22:25:11,526
2025-07-30 22:25:11,500
2025-07-30 22:25:11,451
2025-07-30 22:25:11,511
2025-07-30 22:25:11,519
2025-07-30 22:25:11,480
2025-07-30 22:25:11,506
2025-07-30 22:25:11,512
2025-07-30 22:25:11,481
2025-07-30 22:25:11,492
2025-07-30 22:25:11,526
2025-07-30 22:25:11,473
2025-07-30 22:25:11,474
2025-07-30 22:25:11,502
2025-07-30 22:25:11,496
2025-07-30 22:25:11,484
2025-07-30 22:25:11,510
2025-07-30 22:25:11,493
2025-07-30 22:25:11,458
2025-07-30 22:25:11,515
2025-07-30 22:25:11,511
2025-07-30 22:25:11,456
2025-07-30 22:25:11,494
2025-07-30 22:25:11,532
2025-07-30 22:25:11,479
2025-07-30 22:25:12,494
2025-07-30 22:25:12,530
2025-07-30 22:25:12,479
2025-07-30 22:25:12,481
2025-07-30 22:25:12,528
2025-07-30 22:25:12,495
2025-07-30 22:25:12,460
2025-07-30 22:25:12,509
2025-07-30 22:25:12,502
2025-07-30 22:25:12,460
2025-07-30 22:25:12,505
2025-07-30 22:25:12,522
2025-07-30 22:25:12,463
2025-07-30 22:25:12,501
2025-07-30 22:25:12,516
2025-07-30 22:25:12,478
2025-07-30 22:25:12,485
2025-07-30 22:25:12,512
2025-07-30 22:25:12,491
2025-07-30 22:25:12,496
2025-07-30 22:25:12,534
2025-07-30 22:25:12,488
2025-07-30 22:25:12,466
2025-07-30 22:25:12,521
2025-07-30 22:25:12,522
2025-07-30 22:25:12,473
2025-07-30 22:25:12,499
2025-07-30 22:25:12,483
2025-07-30 22:25:12,484
2025-07-30 22:25:12,518
2025-07-30 22:25:12,526
2025-07-30 22:25:12,471
2025-07-30 22:25:12,485
2025-07-30 22:25:12,520
2025-07-30 22:25:12,477
2025-07-30 22:25:12,492
2025-07-30 22:25:12,541
2025-07-30 22:25:12,512
2025-07-30 22:25:12,472
2025-07-30 22:25:12,515
2025-07-30 22:25:12,502
2025-07-30 22:25:12,457
2025-07-30 22:25:12,463
2025-07-30 22:25:12,516
2025-07-30 22:25:12,508
2025-07-30 22:25:12,510
2025-07-30 22:25:12,531
2025-07-30 22:25:12,496
2025-07-30 22:25:12,488
2025-07-30 22:25:12,536
2025-07-30 22:25:12,496
2025-07-30 22:25:12,479
2025-07-30 22:25:12,519
2025-07-30 22:25:12,490
2025-07-30 22:25:12,464
2025-07-30 22:25:12,492
2025-07-30 22:25:12,510
2025-07-30 22:25:12,492
2025-07-30 22:25:12,510
2025-07-30 22:25:12,525
2025-07-30 22:25:12,481
2025-07-30 22:25:12,495
2025-07-30 22:25:12,504
2025-07-30 22:25:12,484
2025-07-30 22:25:12,476
2025-07-30 22:25:12,533
2025-07-30 22:25:12,505
2025-07-30 22:25:12,479
2025-07-30 22:25:12,525
2025-07-30 22:25:12,516
2025-07-30 22:25:12,465
2025-07-30 22:25:12,504
2025-07-30 22:25:12,511
2025-07-30 22:25:12,485
2025-07-30 22:25:12,523
2025-07-30 22:25:12,519
2025-07-30 22:25:12,475
2025-07-30 22:25:12,489
2025-07-30 22:25:12,515
2025-07-30 22:25:12,483
2025-07-30 22:25:12,505
2025-07-30 22:25:12,544
2025-07-30 22:25:12,499
2025-07-30 22:25:12,473
2025-07-30 22:25:12,518
2025-07-30 22:25:12,518
2025-07-30 22:25:12,480
2025-07-30 22:25:12,514
2025-07-30 22:25:12,523
2025-07-30 22:25:12,475
2025-07-30 22:25:12,508
2025-07-30 22:25:12,532
2025-07-30 22:25:12,473
2025-07-30 22:25:12,483
2025-07-30 22:25:12,537
2025-07-30 22:25:12,492
2025-07-30 22:25:12,472
2025-07-30 22:25:12,532
2025-07-30 22:25:12,493
2025-07-30 22:25:12,468
2025-07-30 22:25:12,514
2025-07-30 22:25:12,515
2025-07-30 22:25:12,488
2025-07-30 22:25:12,531
2025-07-30 22:25:12,513
2025-07-30 22:25:12,471
2025-07-30 22:25:12,519
2025-07-30 22:25:12,532
2025-07-30 22:25:12,487
2025-07-30 22:25:12,495
2025-07-30 22:25:12,528
2025-07-30 22:25:12,490
2025-07-30 22:25:12,489
2025-07-30 22:25:12,536
2025-07-30 22:25:12,509
2025-07-30 22:25:12,495
2025-07-30 22:25:12,529
2025-07-30 22:25:12,516
2025-07-30 22:25:12,467
2025-07-30 22:25:12,524
2025-07-30 22:25:12,516
2025-07-30 22:25:12,483
2025-07-30 22:25:12,512
2025-07-30 22:25:12,541
2025-07-30 22:25:12,499
2025-07-30 22:25:12,506
2025-07-30 22:25:12,531
2025-07-30 22:25:12,492
2025-07-30 22:25:12,503
2025-07-30 22:25:12,543
2025-07-30 22:25:12,509
2025-07-30 22:25:12,480
2025-07-30 22:25:12,528
2025-07-30 22:25:12,526
2025-07-30 22:25:12,487
2025-07-30 22:25:12,513
2025-07-30 22:25:12,526
2025-07-30 22:25:12,494
2025-07-30 22:25:12,510
2025-07-30 22:25:12,528
2025-07-30 22:25:12,482
2025-07-30 22:25:12,500
2025-07-30 22:25:12,533
2025-07-30 22:25:12,513
2025-07-30 22:25:12,500
2025-07-30 22:25:12,534
2025-07-30 22:25:12,507
2025-07-30 22:25:12,482
2025-07-30 22:25:12,536
2025-07-30 22:25:12,524
2025-07-30 22:25:12,484
2025-07-30 22:25:12,519
2025-07-30 22:25:12,524
2025-07-30 22:25:12,487
2025-07-30 22:25:12,521
2025-07-30 22:25:12,543
2025-07-30 22:25:12,489
2025-07-30 22:25:12,497
2025-07-30 22:25:12,542
2025-07-30 22:25:12,514
2025-07-30 22:25:12,493
2025-07-30 22:25:12,547
2025-07-30 22:25:12,519
2025-07-30 22:25:12,496
2025-07-30 22:25:12,539
2025-07-30 22:25:12,536
2025-07-30 22:25:12,494
2025-07-30 22:25:12,536
2025-07-30 22:25:12,527
2025-07-30 22:25:12,498
2025-07-30 22:25:12,517
2025-07-30 22:25:12,542
2025-07-30 22:25:12,491
2025-07-30 22:25:12,505
2025-07-30 22:25:12,547
2025-07-30 22:25:12,524
2025-07-30 22:25:12,501
2025-07-30 22:25:12,533
2025-07-30 22:25:12,526
2025-07-30 22:25:12,491
2025-07-30 22:25:12,535
2025-07-30 22:25:12,529
2025-07-30 22:25:12,494
2025-07-30 22:25:12,532
2025-07-30 22:25:12,537
2025-07-30 22:25:12,487
2025-07-30 22:25:12,500
2025-07-30 22:25:12,537
2025-07-30 22:25:12,516
2025-07-30 22:25:12,515
2025-07-30 22:25:12,528
2025-07-30 22:25:12,526
2025-07-30 22:25:12,490
2025-07-30 22:25:13,537
2025-07-30 22:25:13,530
2025-07-30 22:25:13,479
2025-07-30 22:25:13,544
2025-07-30 22:25:13,542
2025-07-30 22:25:13,495
2025-07-30 22:25:13,519
2025-07-30 22:25:13,533
2025-07-30 22:25:13,504
2025-07-30 22:25:13,514
2025-07-30 22:25:13,523
2025-07-30 22:25:13,500
2025-07-30 22:25:13,501
2025-07-30 22:25:13,529
2025-07-30 22:25:13,514
2025-07-30 22:25:13,508
2025-07-30 22:25:13,555
2025-07-30 22:25:13,545
2025-07-30 22:25:13,503
2025-07-30 22:25:13,531
2025-07-30 22:25:13,532
2025-07-30 22:25:13,490
2025-07-30 22:25:13,520
2025-07-30 22:25:13,556
2025-07-30 22:25:13,495
2025-07-30 22:25:13,482
2025-07-30 22:25:13,542
2025-07-30 22:25:13,496
2025-07-30 22:25:13,494
2025-07-30 22:25:13,558
2025-07-30 22:25:13,512
2025-07-30 22:25:13,490
2025-07-30 22:25:13,541
2025-07-30 22:25:13,527
2025-07-30 22:25:13,501
2025-07-30 22:25:13,531
2025-07-30 22:25:13,533
2025-07-30 22:25:13,478
2025-07-30 22:25:13,508
2025-07-30 22:25:13,547
2025-07-30 22:25:13,524
2025-07-30 22:25:13,520
2025-07-30 22:25:13,531
2025-07-30 22:25:13,506
2025-07-30 22:25:13,505
2025-07-30 22:25:13,552
2025-07-30 22:25:13,528
2025-07-30 22:25:13,488
2025-07-30 22:25:13,501
2025-07-30 22:25:13,522
2025-07-30 22:25:13,487
2025-07-30 22:25:13,529
2025-07-30 22:25:13,545
2025-07-30 22:25:13,500
2025-07-30 22:25:13,504
2025-07-30 22:25:13,555
2025-07-30 22:25:13,529
2025-07-30 22:25:13,497
2025-07-30 22:25:13,539
2025-07-30 22:25:13,533
2025-07-30 22:25:13,502
2025-07-30 22:25:13,554
2025-07-30 22:25:13,535
2025-07-30 22:25:13,483
2025-07-30 22:25:13,524
2025-07-30 22:25:13,537
2025-07-30 22:25:13,498
2025-07-30 22:25:13,526
2025-07-30 22:25:13,538
2025-07-30 22:25:13,500
2025-07-30 22:25:13,506
2025-07-30 22:25:13,552
2025-07-30 22:25:13,498
2025-07-30 22:25:13,516
2025-07-30 22:25:13,560
2025-07-30 22:25:13,510
2025-07-30 22:25:13,509
2025-07-30 22:25:13,557
2025-07-30 22:25:13,528
2025-07-30 22:25:13,484
2025-07-30 22:25:13,535
2025-07-30 22:25:13,544
2025-07-30 22:25:13,499
2025-07-30 22:25:13,518
2025-07-30 22:25:13,538
2025-07-30 22:25:13,514
2025-07-30 22:25:13,527
2025-07-30 22:25:13,537
2025-07-30 22:25:13,517
2025-07-30 22:25:13,527
2025-07-30 22:25:13,563
2025-07-30 22:25:13,506
2025-07-30 22:25:13,482
2025-07-30 22:25:13,538
2025-07-30 22:25:13,544
2025-07-30 22:25:13,496
2025-07-30 22:25:13,538
2025-07-30 22:25:13,527
2025-07-30 22:25:13,486
2025-07-30 22:25:13,537
2025-07-30 22:25:13,553
2025-07-30 22:25:13,501
2025-07-30 22:25:13,510
2025-07-30 22:25:13,529
2025-07-30 22:25:13,522
2025-07-30 22:25:13,505
2025-07-30 22:25:13,550
2025-07-30 22:25:13,535
2025-07-30 22:25:13,500
2025-07-30 22:25:13,551
2025-07-30 22:25:13,530
2025-07-30 22:25:13,491
2025-07-30 22:25:13,518
2025-07-30 22:25:13,543
2025-07-30 22:25:13,495
2025-07-30 22:25:13,527
2025-07-30 22:25:13,542
2025-07-30 22:25:13,514
2025-07-30 22:25:13,520
2025-07-30 22:25:13,558
2025-07-30 22:25:13,515
2025-07-30 22:25:13,502
2025-07-30 22:25:13,547
2025-07-30 22:25:13,521
2025-07-30 22:25:13,493
2025-07-30 22:25:13,533
2025-07-30 22:25:13,535
2025-07-30 22:25:13,497
2025-07-30 22:25:13,528
2025-07-30 22:25:13,536
2025-07-30 22:25:13,512
2025-07-30 22:25:13,534
2025-07-30 22:25:13,548
2025-07-30 22:25:13,500
2025-07-30 22:25:13,515
2025-07-30 22:25:13,554
2025-07-30 22:25:13,522
2025-07-30 22:25:13,503
2025-07-30 22:25:13,545
2025-07-30 22:25:13,515
2025-07-30 22:25:13,493
2025-07-30 22:25:13,538
2025-07-30 22:25:13,529
2025-07-30 22:25:13,505
2025-07-30 22:25:13,539
2025-07-30 22:25:13,552
2025-07-30 22:25:13,493
2025-07-30 22:25:13,517
2025-07-30 22:25:13,547
2025-07-30 22:25:13,505
2025-07-30 22:25:13,520
2025-07-30 22:25:13,567
2025-07-30 22:25:13,513
2025-07-30 22:25:13,490
2025-07-30 22:25:13,557
2025-07-30 22:25:13,527
2025-07-30 22:25:13,488
2025-07-30 22:25:13,533
2025-07-30 22:25:13,530
2025-07-30 22:25:13,495
2025-07-30 22:25:13,530
2025-07-30 22:25:13,539
2025-07-30 22:25:13,501
2025-07-30 22:25:13,521
2025-07-30 22:25:13,550
2025-07-30 22:25:13,510
2025-07-30 22:25:13,512
2025-07-30 22:25:13,551
2025-07-30 22:25:13,525
2025-07-30 22:25:13,499
2025-07-30 22:25:13,532
2025-07-30 22:25:13,527
2025-07-30 22:25:13,513
2025-07-30 22:25:13,529
2025-07-30 22:25:13,545
2025-07-30 22:25:13,492
2025-07-30 22:25:13,539
2025-07-30 22:25:13,549
2025-07-30 22:25:13,500
2025-07-30 22:25:13,509
2025-07-30 22:25:13,533
2025-07-30 22:25:13,519
2025-07-30 22:25:13,518
2025-07-30 22:25:13,557
2025-07-30 22:25:13,522
2025-07-30 22:25:13,498
2025-07-30 22:25:13,548
2025-07-30 22:25:13,527
2025-07-30 22:25:13,487
2025-07-30 22:25:13,528
2025-07-30 22:25:13,521
2025-07-30 22:25:14,490
2025-07-30 22:25:14,533
2025-07-30 22:25:14,560
2025-07-30 22:25:14,503
2025-07-30 22:25:14,520
2025-07-30 22:25:14,553
2025-07-30 22:25:14,498
2025-07-30 22:25:14,503
2025-07-30 22:25:14,544
2025-07-30 22:25:14,524
2025-07-30 22:25:14,498
2025-07-30 22:25:14,540
2025-07-30 22:25:14,530
2025-07-30 22:25:14,495
2025-07-30 22:25:14,533
2025-07-30 22:25:14,540
2025-07-30 22:25:14,504
2025-07-30 22:25:14,528
2025-07-30 22:25:14,534
2025-07-30 22:25:14,479
2025-07-30 22:25:14,522
2025-07-30 22:25:14,560
2025-07-30 22:25:14,520
2025-07-30 22:25:14,512
2025-07-30 22:25:14,542
2025-07-30 22:25:14,484
2025-07-30 22:25:14,500
2025-07-30 22:25:14,555
2025-07-30 22:25:14,541
2025-07-30 22:25:14,500
2025-07-30 22:25:14,529
2025-07-30 22:25:14,533
2025-07-30 22:25:14,492
2025-07-30 22:25:14,507
2025-07-30 22:25:14,548
2025-07-30 22:25:14,494
2025-07-30 22:25:14,519
2025-07-30 22:25:14,552
2025-07-30 22:25:14,514
2025-07-30 22:25:14,491
2025-07-30 22:25:14,525
2025-07-30 22:25:14,516
2025-07-30 22:25:14,498
2025-07-30 22:25:14,552
2025-07-30 22:25:14,530
2025-07-30 22:25:14,488
2025-07-30 22:25:14,528
2025-07-30 22:25:14,539
2025-07-30 22:25:14,496
2025-07-30 22:25:14,508
2025-07-30 22:25:14,533
2025-07-30 22:25:14,487
2025-07-30 22:25:14,509
2025-07-30 22:25:14,541
2025-07-30 22:25:14,505
2025-07-30 22:25:14,495
2025-07-30 22:25:14,547
2025-07-30 22:25:14,518
2025-07-30 22:25:14,489
2025-07-30 22:25:14,529
2025-07-30 22:25:14,531
2025-07-30 22:25:14,496
2025-07-30 22:25:14,523
2025-07-30 22:25:14,538
2025-07-30 22:25:14,494
2025-07-30 22:25:14,503
2025-07-30 22:25:14,545
2025-07-30 22:25:14,503
2025-07-30 22:25:14,494
2025-07-30 22:25:14,532
2025-07-30 22:25:14,517
2025-07-30 22:25:14,501
2025-07-30 22:25:14,532
2025-07-30 22:25:14,523
2025-07-30 22:25:14,490
2025-07-30 22:25:14,535
2025-07-30 22:25:14,530
2025-07-30 22:25:14,502
2025-07-30 22:25:14,534
2025-07-30 22:25:14,537
2025-07-30 22:25:14,478
2025-07-30 22:25:14,518
2025-07-30 22:25:14,556
2025-07-30 22:25:14,507
2025-07-30 22:25:14,501
2025-07-30 22:25:14,544
2025-07-30 22:25:14,513
2025-07-30 22:25:14,485
2025-07-30 22:25:14,544
2025-07-30 22:25:14,521
2025-07-30 22:25:14,486
2025-07-30 22:25:14,529
2025-07-30 22:25:14,525
2025-07-30 22:25:14,496
2025-07-30 22:25:14,512
2025-07-30 22:25:14,539
2025-07-30 22:25:14,510
2025-07-30 22:25:14,513
2025-07-30 22:25:14,545
2025-07-30 22:25:14,501
2025-07-30 22:25:14,490
2025-07-30 22:25:14,538
2025-07-30 22:25:14,519
2025-07-30 22:25:14,496
2025-07-30 22:25:14,536
2025-07-30 22:25:14,517
2025-07-30 22:25:14,487
2025-07-30 22:25:14,531
2025-07-30 22:25:14,515
2025-07-30 22:25:14,477
2025-07-30 22:25:14,522
2025-07-30 22:25:14,545
2025-07-30 22:25:14,506
2025-07-30 22:25:14,516
2025-07-30 22:25:14,549
2025-07-30 22:25:14,493
2025-07-30 22:25:14,469
2025-07-30 22:25:14,546
2025-07-30 22:25:14,526
2025-07-30 22:25:14,498
2025-07-30 22:25:14,527
2025-07-30 22:25:14,518
2025-07-30 22:25:14,484
2025-07-30 22:25:14,538
2025-07-30 22:25:14,542
2025-07-30 22:25:14,489
2025-07-30 22:25:14,510
2025-07-30 22:25:14,530
2025-07-30 22:25:14,472
2025-07-30 22:25:14,519
2025-07-30 22:25:14,542
2025-07-30 22:25:14,505
2025-07-30 22:25:14,506
2025-07-30 22:25:14,526
2025-07-30 22:25:14,511
2025-07-30 22:25:14,502
2025-07-30 22:25:14,537
2025-07-30 22:25:14,523
2025-07-30 22:25:14,478
2025-07-30 22:25:14,522
2025-07-30 22:25:14,533
2025-07-30 22:25:14,500
2025-07-30 22:25:14,517
2025-07-30 22:25:14,534
2025-07-30 22:25:14,497
2025-07-30 22:25:14,495
2025-07-30 22:25:14,530
2025-07-30 22:25:14,507
2025-07-30 22:25:14,499
2025-07-30 22:25:14,545
2025-07-30 22:25:14,514
2025-07-30 22:25:14,487
2025-07-30 22:25:14,527
2025-07-30 22:25:14,500
2025-07-30 22:25:14,493
2025-07-30 22:25:14,542
2025-07-30 22:25:14,542
2025-07-30 22:25:14,488
2025-07-30 22:25:14,514
2025-07-30 22:25:14,538
2025-07-30 22:25:14,505
2025-07-30 22:25:14,512
2025-07-30 22:25:14,536
2025-07-30 22:25:14,508
2025-07-30 22:25:14,484
2025-07-30 22:25:14,538
2025-07-30 22:25:14,518
2025-07-30 22:25:14,483
2025-07-30 22:25:14,543
2025-07-30 22:25:14,528
2025-07-30 22:25:14,491
2025-07-30 22:25:14,516
2025-07-30 22:25:14,535
2025-07-30 22:25:14,497
2025-07-30 22:25:14,515
2025-07-30 22:25:14,547
2025-07-30 22:25:14,498
2025-07-30 22:25:14,490
2025-07-30 22:25:14,540
2025-07-30 22:25:14,512
2025-07-30 22:25:14,497
2025-07-30 22:25:14,541
2025-07-30 22:25:14,522
2025-07-30 22:25:14,480
2025-07-30 22:25:14,536
2025-07-30 22:25:14,533
2025-07-30 22:25:14,494
2025-07-30 22:25:14,522
2025-07-30 22:25:14,541
2025-07-30 22:25:14,482
2025-07-30 22:25:14,488
2025-07-30 22:25:14,554
2025-07-30 22:25:14,510
2025-07-30 22:25:14,503
2025-07-30 22:25:15,538
2025-07-30 22:25:15,509
2025-07-30 22:25:15,488
2025-07-30 22:25:15,524
2025-07-30 22:25:15,520
2025-07-30 22:25:15,489
2025-07-30 22:25:15,534
2025-07-30 22:25:15,534
2025-07-30 22:25:15,484
2025-07-30 22:25:15,520
2025-07-30 22:25:15,537
2025-07-30 22:25:15,504
2025-07-30 22:25:15,511
2025-07-30 22:25:15,543
2025-07-30 22:25:15,504
2025-07-30 22:25:15,502
2025-07-30 22:25:15,538
2025-07-30 22:25:15,506
2025-07-30 22:25:15,492
2025-07-30 22:25:15,534
2025-07-30 22:25:15,524
2025-07-30 22:25:15,488
2025-07-30 22:25:15,533
2025-07-30 22:25:15,538
2025-07-30 22:25:15,492
2025-07-30 22:25:15,522
2025-07-30 22:25:15,541
2025-07-30 22:25:15,497
2025-07-30 22:25:15,510
2025-07-30 22:25:15,527
2025-07-30 22:25:15,514
2025-07-30 22:25:15,513
2025-07-30 22:25:15,545
2025-07-30 22:25:15,515
2025-07-30 22:25:15,485
2025-07-30 22:25:15,521
2025-07-30 22:25:15,536
2025-07-30 22:25:15,504
2025-07-30 22:25:15,532
2025-07-30 22:25:15,541
2025-07-30 22:25:15,491
2025-07-30 22:25:15,511
2025-07-30 22:25:15,538
2025-07-30 22:25:15,516
2025-07-30 22:25:15,515
2025-07-30 22:25:15,547
2025-07-30 22:25:15,497
2025-07-30 22:25:15,501
2025-07-30 22:25:15,546
2025-07-30 22:25:15,518
2025-07-30 22:25:15,489
2025-07-30 22:25:15,532
2025-07-30 22:25:15,526
2025-07-30 22:25:15,495
2025-07-30 22:25:15,535
2025-07-30 22:25:15,539
2025-07-30 22:25:15,485
2025-07-30 22:25:15,519
2025-07-30 22:25:15,537
2025-07-30 22:25:15,492
2025-07-30 22:25:15,502
2025-07-30 22:25:15,557
2025-07-30 22:25:15,519
2025-07-30 22:25:15,499
2025-07-30 22:25:15,515
2025-07-30 22:25:15,524
2025-07-30 22:25:15,490
2025-07-30 22:25:15,544
2025-07-30 22:25:15,539
2025-07-30 22:25:15,486
2025-07-30 22:25:15,524
2025-07-30 22:25:15,542
2025-07-30 22:25:15,491
2025-07-30 22:25:15,503
2025-07-30 22:25:15,552
2025-07-30 22:25:15,504
2025-07-30 22:25:15,504
2025-07-30 22:25:15,549
2025-07-30 22:25:15,515
2025-07-30 22:25:15,502
2025-07-30 22:25:15,531
2025-07-30 22:25:15,520
2025-07-30 22:25:15,481
2025-07-30 22:25:15,516
2025-07-30 22:25:15,529
2025-07-30 22:25:15,484
2025-07-30 22:25:15,533
2025-07-30 22:25:15,544
2025-07-30 22:25:15,497
2025-07-30 22:25:15,509
2025-07-30 22:25:15,540
2025-07-30 22:25:15,508
2025-07-30 22:25:15,513
2025-07-30 22:25:15,534
2025-07-30 22:25:15,502
2025-07-30 22:25:15,500
2025-07-30 22:25:15,540
2025-07-30 22:25:15,519
2025-07-30 22:25:15,478
2025-07-30 22:25:15,531
2025-07-30 22:25:15,544
2025-07-30 22:25:15,491
2025-07-30 22:25:15,513
2025-07-30 22:25:15,538
2025-07-30 22:25:15,491
2025-07-30 22:25:15,507
2025-07-30 22:25:15,535
2025-07-30 22:25:15,504
2025-07-30 22:25:15,499
2025-07-30 22:25:15,537
2025-07-30 22:25:15,506
2025-07-30 22:25:15,479
2025-07-30 22:25:15,519
2025-07-30 22:25:15,512
2025-07-30 22:25:15,510
2025-07-30 22:25:15,532
2025-07-30 22:25:15,524
2025-07-30 22:25:15,492
2025-07-30 22:25:15,511
2025-07-30 22:25:15,534
2025-07-30 22:25:15,479
2025-07-30 22:25:15,505
2025-07-30 22:25:15,547
2025-07-30 22:25:15,500
2025-07-30 22:25:15,491
2025-07-30 22:25:15,530
2025-07-30 22:25:15,500
2025-07-30 22:25:15,479
2025-07-30 22:25:15,533
2025-07-30 22:25:15,520
2025-07-30 22:25:15,491
2025-07-30 22:25:15,523
2025-07-30 22:25:15,525
2025-07-30 22:25:15,484
2025-07-30 22:25:15,513
2025-07-30 22:25:15,527
2025-07-30 22:25:15,496
2025-07-30 22:25:15,501
2025-07-30 22:25:15,531
2025-07-30 22:25:15,498
2025-07-30 22:25:15,491
2025-07-30 22:25:15,532
2025-07-30 22:25:15,504
2025-07-30 22:25:15,481
2025-07-30 22:25:15,527
2025-07-30 22:25:15,521
2025-07-30 22:25:15,474
2025-07-30 22:25:15,517
2025-07-30 22:25:15,519
2025-07-30 22:25:15,479
2025-07-30 22:25:15,504
2025-07-30 22:25:15,538
2025-07-30 22:25:15,490
2025-07-30 22:25:15,496
2025-07-30 22:25:15,530
2025-07-30 22:25:15,494
2025-07-30 22:25:15,485
2025-07-30 22:25:15,520
2025-07-30 22:25:15,502
2025-07-30 22:25:15,478
2025-07-30 22:25:15,512
2025-07-30 22:25:15,519
2025-07-30 22:25:15,480
2025-07-30 22:25:15,497
2025-07-30 22:25:15,518
2025-07-30 22:25:15,477
2025-07-30 22:25:15,503
2025-07-30 22:25:15,527
2025-07-30 22:25:15,481
2025-07-30 22:25:15,485
2025-07-30 22:25:15,535
2025-07-30 22:25:15,497
2025-07-30 22:25:15,474
2025-07-30 22:25:15,518
2025-07-30 22:25:15,512
2025-07-30 22:25:15,475
2025-07-30 22:25:15,509
2025-07-30 22:25:15,523
2025-07-30 22:25:15,478
2025-07-30 22:25:15,492
2025-07-30 22:25:15,510
2025-07-30 22:25:15,482
2025-07-30 22:25:15,502
2025-07-30 22:25:15,537
2025-07-30 22:25:15,492
2025-07-30 22:25:15,482
2025-07-30 22:25:15,518
2025-07-30 22:25:15,496
2025-07-30 22:25:15,484
2025-07-30 22:25:15,530
2025-07-30 22:25:15,500
2025-07-30 22:25:15,460
2025-07-30 22:25:15,518
2025-07-30 22:25:16,506
2025-07-30 22:25:16,464
2025-07-30 22:25:16,507
2025-07-30 22:25:16,515
2025-07-30 22:25:16,477
2025-07-30 22:25:16,494
2025-07-30 22:25:16,528
2025-07-30 22:25:16,491
2025-07-30 22:25:16,487
2025-07-30 22:25:16,514
2025-07-30 22:25:16,495
2025-07-30 22:25:16,492
2025-07-30 22:25:16,525
2025-07-30 22:25:16,510
2025-07-30 22:25:16,470
2025-07-30 22:25:16,515
2025-07-30 22:25:16,520
2025-07-30 22:25:16,479
2025-07-30 22:25:16,508
2025-07-30 22:25:16,509
2025-07-30 22:25:16,476
2025-07-30 22:25:16,488
2025-07-30 22:25:16,533
2025-07-30 22:25:16,502
2025-07-30 22:25:16,492
2025-07-30 22:25:16,537
2025-07-30 22:25:16,510
2025-07-30 22:25:16,472
2025-07-30 22:25:16,523
2025-07-30 22:25:16,511
2025-07-30 22:25:16,481
2025-07-30 22:25:16,509
2025-07-30 22:25:16,497
2025-07-30 22:25:16,470
2025-07-30 22:25:16,501
2025-07-30 22:25:16,537
2025-07-30 22:25:16,484
2025-07-30 22:25:16,492
2025-07-30 22:25:16,538
2025-07-30 22:25:16,500
2025-07-30 22:25:16,487
2025-07-30 22:25:16,520
2025-07-30 22:25:16,494
2025-07-30 22:25:16,476
2025-07-30 22:25:16,524
2025-07-30 22:25:16,516
2025-07-30 22:25:16,487
2025-07-30 22:25:16,504
2025-07-30 22:25:16,532
2025-07-30 22:25:16,475
2025-07-30 22:25:16,504
2025-07-30 22:25:16,515
2025-07-30 22:25:16,495
2025-07-30 22:25:16,496
2025-07-30 22:25:16,523
2025-07-30 22:25:16,499
2025-07-30 22:25:16,488
2025-07-30 22:25:16,533
2025-07-30 22:25:16,512
2025-07-30 22:25:16,480
2025-07-30 22:25:16,525
2025-07-30 22:25:16,514
2025-07-30 22:25:16,475
2025-07-30 22:25:16,514
2025-07-30 22:25:16,528
2025-07-30 22:25:16,477
2025-07-30 22:25:16,512
2025-07-30 22:25:16,528
2025-07-30 22:25:16,486
2025-07-30 22:25:16,487
2025-07-30 22:25:16,534
2025-07-30 22:25:16,503
2025-07-30 22:25:16,486
2025-07-30 22:25:16,535
2025-07-30 22:25:16,503
2025-07-30 22:25:16,483
2025-07-30 22:25:16,514
2025-07-30 22:25:16,523
2025-07-30 22:25:16,483
2025-07-30 22:25:16,512
2025-07-30 22:25:16,527
2025-07-30 22:25:16,496
2025-07-30 22:25:16,503
2025-07-30 22:25:16,531
2025-07-30 22:25:16,481
2025-07-30 22:25:16,472
2025-07-30 22:25:16,533
2025-07-30 22:25:16,498
2025-07-30 22:25:16,481
2025-07-30 22:25:16,528
2025-07-30 22:25:16,506
2025-07-30 22:25:16,478
2025-07-30 22:25:16,521
2025-07-30 22:25:16,522
2025-07-30 22:25:16,475
2025-07-30 22:25:16,519
2025-07-30 22:25:16,537
2025-07-30 22:25:16,487
2025-07-30 22:25:16,501
2025-07-30 22:25:16,529
2025-07-30 22:25:16,487
2025-07-30 22:25:16,483
2025-07-30 22:25:16,529
2025-07-30 22:25:16,499
2025-07-30 22:25:16,477
2025-07-30 22:25:16,510
2025-07-30 22:25:16,494
2025-07-30 22:25:16,488
2025-07-30 22:25:16,533
2025-07-30 22:25:16,531
2025-07-30 22:25:16,481
2025-07-30 22:25:16,497
2025-07-30 22:25:16,515
2025-07-30 22:25:16,477
2025-07-30 22:25:16,518
2025-07-30 22:25:16,535
2025-07-30 22:25:16,500
2025-07-30 22:25:16,497
2025-07-30 22:25:16,536
2025-07-30 22:25:16,501
2025-07-30 22:25:16,474
2025-07-30 22:25:16,530
2025-07-30 22:25:16,515
2025-07-30 22:25:16,486
2025-07-30 22:25:16,504
2025-07-30 22:25:16,523
2025-07-30 22:25:16,498
2025-07-30 22:25:16,503
2025-07-30 22:25:16,531
2025-07-30 22:25:16,494
2025-07-30 22:25:16,506
2025-07-30 22:25:16,536
2025-07-30 22:25:16,495
2025-07-30 22:25:16,488
2025-07-30 22:25:16,526
2025-07-30 22:25:16,521
2025-07-30 22:25:16,491
2025-07-30 22:25:16,528
2025-07-30 22:25:16,519
2025-07-30 22:25:16,487
2025-07-30 22:25:16,527
2025-07-30 22:25:16,532
2025-07-30 22:25:16,484
2025-07-30 22:25:16,509
2025-07-30 22:25:16,540
2025-07-30 22:25:16,498
2025-07-30 22:25:16,502
2025-07-30 22:25:16,542
2025-07-30 22:25:16,498
2025-07-30 22:25:16,501
2025-07-30 22:25:16,540
2025-07-30 22:25:16,506
2025-07-30 22:25:16,487
2025-07-30 22:25:16,527
2025-07-30 22:25:16,534
2025-07-30 22:25:16,504
2025-07-30 22:25:16,526
2025-07-30 22:25:16,533
2025-07-30 22:25:16,480
2025-07-30 22:25:16,500
2025-07-30 22:25:16,544
2025-07-30 22:25:16,501
2025-07-30 22:25:16,511
2025-07-30 22:25:16,541
2025-07-30 22:25:16,503
2025-07-30 22:25:16,488
2025-07-30 22:25:16,533
2025-07-30 22:25:16,528
2025-07-30 22:25:16,494
2025-07-30 22:25:16,523
2025-07-30 22:25:16,519
2025-07-30 22:25:16,502
2025-07-30 22:25:16,530
2025-07-30 22:25:16,524
2025-07-30 22:25:16,488
2025-07-30 22:25:16,512
2025-07-30 22:25:16,541
2025-07-30 22:25:16,497
2025-07-30 22:25:16,493
2025-07-30 22:25:16,542
2025-07-30 22:25:16,509
2025-07-30 22:25:16,497
2025-07-30 22:25:16,539
2025-07-30 22:25:16,519
2025-07-30 22:25:16,489
2025-07-30 22:25:16,528
2025-07-30 22:25:16,511
2025-07-30 22:25:16,485
2025-07-30 22:25:16,520
2025-07-30 22:25:16,530
2025-07-30 22:25:16,498
2025-07-30 22:25:17,527
2025-07-30 22:25:17,547
2025-07-30 22:25:17,501
2025-07-30 22:25:17,493
2025-07-30 22:25:17,527
2025-07-30 22:25:17,522
2025-07-30 22:25:17,494
2025-07-30 22:25:17,534
2025-07-30 22:25:17,526
2025-07-30 22:25:17,477
2025-07-30 22:25:17,520
2025-07-30 22:25:17,532
2025-07-30 22:25:17,489
2025-07-30 22:25:17,515
2025-07-30 22:25:17,530
2025-07-30 22:25:17,498
2025-07-30 22:25:17,513
2025-07-30 22:25:17,548
2025-07-30 22:25:17,505
2025-07-30 22:25:17,496
2025-07-30 22:25:17,543
2025-07-30 22:25:17,522
2025-07-30 22:25:17,496
2025-07-30 22:25:17,539
2025-07-30 22:25:17,531
2025-07-30 22:25:17,477
2025-07-30 22:25:17,519
2025-07-30 22:25:17,532
2025-07-30 22:25:17,488
2025-07-30 22:25:17,514
2025-07-30 22:25:17,543
2025-07-30 22:25:17,501
2025-07-30 22:25:17,510
2025-07-30 22:25:17,550
2025-07-30 22:25:17,505
2025-07-30 22:25:17,503
2025-07-30 22:25:17,543
2025-07-30 22:25:17,519
2025-07-30 22:25:17,484
2025-07-30 22:25:17,515
2025-07-30 22:25:17,526
2025-07-30 22:25:17,495
2025-07-30 22:25:17,533
2025-07-30 22:25:17,537
2025-07-30 22:25:17,485
2025-07-30 22:25:17,507
2025-07-30 22:25:17,540
2025-07-30 22:25:17,487
2025-07-30 22:25:17,510
2025-07-30 22:25:17,546
2025-07-30 22:25:17,497
2025-07-30 22:25:17,495
2025-07-30 22:25:17,546
2025-07-30 22:25:17,501
2025-07-30 22:25:17,494
2025-07-30 22:25:17,541
2025-07-30 22:25:17,528
2025-07-30 22:25:17,494
2025-07-30 22:25:17,526
2025-07-30 22:25:17,538
2025-07-30 22:25:17,491
2025-07-30 22:25:17,518
2025-07-30 22:25:17,543
2025-07-30 22:25:17,500
2025-07-30 22:25:17,505
2025-07-30 22:25:17,537
2025-07-30 22:25:17,493
2025-07-30 22:25:17,490
2025-07-30 22:25:17,543
2025-07-30 22:25:17,534
2025-07-30 22:25:17,497
2025-07-30 22:25:17,531
2025-07-30 22:25:17,522
2025-07-30 22:25:17,485
2025-07-30 22:25:17,517
2025-07-30 22:25:17,543
2025-07-30 22:25:17,498
2025-07-30 22:25:17,520
2025-07-30 22:25:17,547
2025-07-30 22:25:17,492
2025-07-30 22:25:17,494
2025-07-30 22:25:17,533
2025-07-30 22:25:17,520
2025-07-30 22:25:17,496
2025-07-30 22:25:17,534
2025-07-30 22:25:17,525
2025-07-30 22:25:17,494
2025-07-30 22:25:17,524
2025-07-30 22:25:17,525
2025-07-30 22:25:17,491
2025-07-30 22:25:17,525
2025-07-30 22:25:17,546
2025-07-30 22:25:17,505
2025-07-30 22:25:17,517
2025-07-30 22:25:17,538
2025-07-30 22:25:17,490
2025-07-30 22:25:17,499
2025-07-30 22:25:17,550
2025-07-30 22:25:17,512
2025-07-30 22:25:17,496
2025-07-30 22:25:17,527
2025-07-30 22:25:17,521
2025-07-30 22:25:17,488
2025-07-30 22:25:17,525
2025-07-30 22:25:17,528
2025-07-30 22:25:17,487
2025-07-30 22:25:17,521
2025-07-30 22:25:17,538
2025-07-30 22:25:17,486
2025-07-30 22:25:17,503
2025-07-30 22:25:17,524
2025-07-30 22:25:17,498
2025-07-30 22:25:17,505
2025-07-30 22:25:17,537
2025-07-30 22:25:17,509
2025-07-30 22:25:17,493
2025-07-30 22:25:17,532
2025-07-30 22:25:17,520
2025-07-30 22:25:17,496
2025-07-30 22:25:17,525
2025-07-30 22:25:17,509
2025-07-30 22:25:17,489
2025-07-30 22:25:17,511
2025-07-30 22:25:17,537
2025-07-30 22:25:17,502
2025-07-30 22:25:17,514
2025-07-30 22:25:17,540
2025-07-30 22:25:17,495
2025-07-30 22:25:17,496
2025-07-30 22:25:17,537
2025-07-30 22:25:17,503
2025-07-30 22:25:17,500
2025-07-30 22:25:17,536
2025-07-30 22:25:17,519
2025-07-30 22:25:17,477
2025-07-30 22:25:17,518
2025-07-30 22:25:17,529
2025-07-30 22:25:17,465
2025-07-30 22:25:17,517
2025-07-30 22:25:17,555
2025-07-30 22:25:17,503
2025-07-30 22:25:17,514
2025-07-30 22:25:17,547
2025-07-30 22:25:17,505
2025-07-30 22:25:17,497
2025-07-30 22:25:17,529
2025-07-30 22:25:17,514
2025-07-30 22:25:17,491
2025-07-30 22:25:17,530
2025-07-30 22:25:17,528
2025-07-30 22:25:17,470
2025-07-30 22:25:17,524
2025-07-30 22:25:17,530
2025-07-30 22:25:17,495
2025-07-30 22:25:17,517
2025-07-30 22:25:17,540
2025-07-30 22:25:17,503
2025-07-30 22:25:17,511
2025-07-30 22:25:17,542
2025-07-30 22:25:17,499
2025-07-30 22:25:17,482
2025-07-30 22:25:17,543
2025-07-30 22:25:17,505
2025-07-30 22:25:17,477
2025-07-30 22:25:17,540
2025-07-30 22:25:17,538
2025-07-30 22:25:17,494
2025-07-30 22:25:17,523
2025-07-30 22:25:17,529
2025-07-30 22:25:17,495
2025-07-30 22:25:17,516
2025-07-30 22:25:17,536
2025-07-30 22:25:17,495
2025-07-30 22:25:17,505
2025-07-30 22:25:17,544
2025-07-30 22:25:17,500
2025-07-30 22:25:17,489
2025-07-30 22:25:17,528
2025-07-30 22:25:17,525
2025-07-30 22:25:17,493
2025-07-30 22:25:17,529
2025-07-30 22:25:17,526
2025-07-30 22:25:17,488
2025-07-30 22:25:17,517
2025-07-30 22:25:17,525
2025-07-30 22:25:17,493
2025-07-30 22:25:17,505
2025-07-30 22:25:17,525
2025-07-30 22:25:17,499
2025-07-30 22:25:17,506
2025-07-30 22:25:17,546
2025-07-30 22:25:17,510
2025-07-30 22:25:17,493
2025-07-30 22:25:18,541
2025-07-30 22:25:18,521
2025-07-30 22:25:18,485
2025-07-30 22:25:18,522
2025-07-30 22:25:18,531
2025-07-30 22:25:18,479
2025-07-30 22:25:18,509
2025-07-30 22:25:18,532
2025-07-30 22:25:18,493
2025-07-30 22:25:18,505
2025-07-30 22:25:18,533
2025-07-30 22:25:18,497
2025-07-30 22:25:18,500
2025-07-30 22:25:18,544
2025-07-30 22:25:18,511
2025-07-30 22:25:18,497
2025-07-30 22:25:18,503
2025-07-30 22:25:18,520
2025-07-30 22:25:18,489
2025-07-30 22:25:18,526
2025-07-30 22:25:18,530
2025-07-30 22:25:18,485
2025-07-30 22:25:18,513
2025-07-30 22:25:18,527
2025-07-30 22:25:18,494
2025-07-30 22:25:18,504
2025-07-30 22:25:18,540
2025-07-30 22:25:18,507
2025-07-30 22:25:18,500
2025-07-30 22:25:18,531
2025-07-30 22:25:18,503
2025-07-30 22:25:18,486
2025-07-30 22:25:18,531
2025-07-30 22:25:18,527
2025-07-30 22:25:18,497
2025-07-30 22:25:18,529
2025-07-30 22:25:18,521
2025-07-30 22:25:18,472
2025-07-30 22:25:18,501
2025-07-30 22:25:18,527
2025-07-30 22:25:18,502
2025-07-30 22:25:18,512
2025-07-30 22:25:18,541
2025-07-30 22:25:18,498
2025-07-30 22:25:18,483
2025-07-30 22:25:18,534
2025-07-30 22:25:18,512
2025-07-30 22:25:18,486
2025-07-30 22:25:18,528
2025-07-30 22:25:18,514
2025-07-30 22:25:18,483
2025-07-30 22:25:18,522
2025-07-30 22:25:18,512
2025-07-30 22:25:18,473
2025-07-30 22:25:18,504
2025-07-30 22:25:18,528
2025-07-30 22:25:18,495
2025-07-30 22:25:18,498
2025-07-30 22:25:18,529
2025-07-30 22:25:18,487
2025-07-30 22:25:18,484
2025-07-30 22:25:18,539
2025-07-30 22:25:18,506
2025-07-30 22:25:18,475
2025-07-30 22:25:18,525
2025-07-30 22:25:18,513
2025-07-30 22:25:18,479
2025-07-30 22:25:18,515
2025-07-30 22:25:18,519
2025-07-30 22:25:18,468
2025-07-30 22:25:18,510
2025-07-30 22:25:18,536
2025-07-30 22:25:18,488
2025-07-30 22:25:18,500
2025-07-30 22:25:18,516
2025-07-30 22:25:18,499
2025-07-30 22:25:18,504
2025-07-30 22:25:18,528
2025-07-30 22:25:18,499
2025-07-30 22:25:18,469
2025-07-30 22:25:18,522
2025-07-30 22:25:18,522
2025-07-30 22:25:18,474
2025-07-30 22:25:18,506
2025-07-30 22:25:18,525
2025-07-30 22:25:18,480
2025-07-30 22:25:18,502
2025-07-30 22:25:18,517
2025-07-30 22:25:18,505
2025-07-30 22:25:18,499
2025-07-30 22:25:18,509
2025-07-30 22:25:18,496
2025-07-30 22:25:18,501
2025-07-30 22:25:18,533
2025-07-30 22:25:18,512
2025-07-30 22:25:18,494
2025-07-30 22:25:18,524
2025-07-30 22:25:18,511
2025-07-30 22:25:18,469
2025-07-30 22:25:18,511
2025-07-30 22:25:18,530
2025-07-30 22:25:18,482
2025-07-30 22:25:18,503
2025-07-30 22:25:18,539
2025-07-30 22:25:18,477
2025-07-30 22:25:18,486
2025-07-30 22:25:18,546
2025-07-30 22:25:18,512
2025-07-30 22:25:18,487
2025-07-30 22:25:18,531
2025-07-30 22:25:18,504
2025-07-30 22:25:18,473
2025-07-30 22:25:18,523
2025-07-30 22:25:18,517
2025-07-30 22:25:18,466
2025-07-30 22:25:18,521
2025-07-30 22:25:18,526
2025-07-30 22:25:18,473
2025-07-30 22:25:18,493
2025-07-30 22:25:18,539
2025-07-30 22:25:18,500
2025-07-30 22:25:18,498
2025-07-30 22:25:18,528
2025-07-30 22:25:18,491
2025-07-30 22:25:18,474
2025-07-30 22:25:18,520
2025-07-30 22:25:18,503
2025-07-30 22:25:18,501
2025-07-30 22:25:18,526
2025-07-30 22:25:18,520
2025-07-30 22:25:18,482
2025-07-30 22:25:18,513
2025-07-30 22:25:18,530
2025-07-30 22:25:18,482
2025-07-30 22:25:18,504
2025-07-30 22:25:18,536
2025-07-30 22:25:18,506
2025-07-30 22:25:18,486
2025-07-30 22:25:18,519
2025-07-30 22:25:18,504
2025-07-30 22:25:18,487
2025-07-30 22:25:18,534
2025-07-30 22:25:18,517
2025-07-30 22:25:18,476
2025-07-30 22:25:18,515
2025-07-30 22:25:18,533
2025-07-30 22:25:18,487
2025-07-30 22:25:18,507
2025-07-30 22:25:18,532
2025-07-30 22:25:18,481
2025-07-30 22:25:18,461
2025-07-30 22:25:18,543
2025-07-30 22:25:18,508
2025-07-30 22:25:18,499
2025-07-30 22:25:18,537
2025-07-30 22:25:18,505
2025-07-30 22:25:18,478
2025-07-30 22:25:18,526
2025-07-30 22:25:18,511
2025-07-30 22:25:18,478
2025-07-30 22:25:18,519
2025-07-30 22:25:18,520
2025-07-30 22:25:18,485
2025-07-30 22:25:18,510
2025-07-30 22:25:18,533
2025-07-30 22:25:18,503
2025-07-30 22:25:18,509
2025-07-30 22:25:18,538
2025-07-30 22:25:18,490
2025-07-30 22:25:18,482
2025-07-30 22:25:18,532
2025-07-30 22:25:18,503
2025-07-30 22:25:18,485
2025-07-30 22:25:18,532
2025-07-30 22:25:18,521
2025-07-30 22:25:18,471
2025-07-30 22:25:18,484
2025-07-30 22:25:18,516
2025-07-30 22:25:18,513
2025-07-30 22:25:18,529
2025-07-30 22:25:18,543
2025-07-30 22:25:18,487
2025-07-30 22:25:18,489
2025-07-30 22:25:18,535
2025-07-30 22:25:18,509
2025-07-30 22:25:18,498
2025-07-30 22:25:18,531
2025-07-30 22:25:18,507
2025-07-30 22:25:18,463
2025-07-30 22:25:18,509
2025-07-30 22:25:18,525
2025-07-30 22:25:19,493
2025-07-30 22:25:19,524
2025-07-30 22:25:19,535
2025-07-30 22:25:19,489
2025-07-30 22:25:19,501
2025-07-30 22:25:19,504
2025-07-30 22:25:19,501
2025-07-30 22:25:19,507
2025-07-30 22:25:19,543
2025-07-30 22:25:19,508
2025-07-30 22:25:19,492
2025-07-30 22:25:19,540
2025-07-30 22:25:19,514
2025-07-30 22:25:19,479
2025-07-30 22:25:19,517
2025-07-30 22:25:19,501
2025-07-30 22:25:19,494
2025-07-30 22:25:19,519
2025-07-30 22:25:19,536
2025-07-30 22:25:19,483
2025-07-30 22:25:19,508
2025-07-30 22:25:19,540
2025-07-30 22:25:19,503
2025-07-30 22:25:19,505
2025-07-30 22:25:19,538
2025-07-30 22:25:19,513
2025-07-30 22:25:19,493
2025-07-30 22:25:19,533
2025-07-30 22:25:19,507
2025-07-30 22:25:19,482
2025-07-30 22:25:19,517
2025-07-30 22:25:19,525
2025-07-30 22:25:19,496
2025-07-30 22:25:19,521
2025-07-30 22:25:19,541
2025-07-30 22:25:19,488
2025-07-30 22:25:19,508
2025-07-30 22:25:19,543
2025-07-30 22:25:19,504
2025-07-30 22:25:19,504
2025-07-30 22:25:19,547
2025-07-30 22:25:19,512
2025-07-30 22:25:19,471
2025-07-30 22:25:19,521
2025-07-30 22:25:19,534
2025-07-30 22:25:19,501
2025-07-30 22:25:19,531
2025-07-30 22:25:19,533
2025-07-30 22:25:19,485
2025-07-30 22:25:19,493
2025-07-30 22:25:19,523
2025-07-30 22:25:19,504
2025-07-30 22:25:19,505
2025-07-30 22:25:19,541
2025-07-30 22:25:19,505
2025-07-30 22:25:19,501
2025-07-30 22:25:19,536
2025-07-30 22:25:19,457
2025-07-30 22:25:19,488
2025-07-30 22:25:19,550
2025-07-30 22:25:19,542
2025-07-30 22:25:19,502
2025-07-30 22:25:19,533
2025-07-30 22:25:19,533
2025-07-30 22:25:19,488
2025-07-30 22:25:19,513
2025-07-30 22:25:19,524
2025-07-30 22:25:19,487
2025-07-30 22:25:19,501
2025-07-30 22:25:19,542
2025-07-30 22:25:19,510
2025-07-30 22:25:19,509
2025-07-30 22:25:19,542
2025-07-30 22:25:19,516
2025-07-30 22:25:19,487
2025-07-30 22:25:19,532
2025-07-30 22:25:19,520
2025-07-30 22:25:19,459
2025-07-30 22:25:19,519
2025-07-30 22:25:19,552
2025-07-30 22:25:19,506
2025-07-30 22:25:19,519
2025-07-30 22:25:19,541
2025-07-30 22:25:19,501
2025-07-30 22:25:19,499
2025-07-30 22:25:19,530
2025-07-30 22:25:19,504
2025-07-30 22:25:19,487
2025-07-30 22:25:19,533
2025-07-30 22:25:19,514
2025-07-30 22:25:19,499
2025-07-30 22:25:19,528
2025-07-30 22:25:19,514
2025-07-30 22:25:19,490
2025-07-30 22:25:19,538
2025-07-30 22:25:19,542
2025-07-30 22:25:19,497
2025-07-30 22:25:19,509
2025-07-30 22:25:19,528
2025-07-30 22:25:19,498
2025-07-30 22:25:19,514
2025-07-30 22:25:19,540
2025-07-30 22:25:19,509
2025-07-30 22:25:19,490
2025-07-30 22:25:19,529
2025-07-30 22:25:19,523
2025-07-30 22:25:19,493
2025-07-30 22:25:19,530
2025-07-30 22:25:19,522
2025-07-30 22:25:19,482
2025-07-30 22:25:19,528
2025-07-30 22:25:19,535
2025-07-30 22:25:19,500
2025-07-30 22:25:19,510
2025-07-30 22:25:19,539
2025-07-30 22:25:19,498
2025-07-30 22:25:19,507
2025-07-30 22:25:19,537
2025-07-30 22:25:19,504
2025-07-30 22:25:19,485
2025-07-30 22:25:19,513
2025-07-30 22:25:19,520
2025-07-30 22:25:19,496
2025-07-30 22:25:19,544
2025-07-30 22:25:19,531
2025-07-30 22:25:19,490
2025-07-30 22:25:19,519
2025-07-30 22:25:19,525
2025-07-30 22:25:19,493
2025-07-30 22:25:19,504
2025-07-30 22:25:19,553
2025-07-30 22:25:19,506
2025-07-30 22:25:19,492
2025-07-30 22:25:19,547
2025-07-30 22:25:19,501
2025-07-30 22:25:19,485
2025-07-30 22:25:19,536
2025-07-30 22:25:19,522
2025-07-30 22:25:19,485
2025-07-30 22:25:19,539
2025-07-30 22:25:19,536
2025-07-30 22:25:19,489
2025-07-30 22:25:19,516
2025-07-30 22:25:19,541
2025-07-30 22:25:19,496
2025-07-30 22:25:19,519
2025-07-30 22:25:19,558
2025-07-30 22:25:19,511
2025-07-30 22:25:19,500
2025-07-30 22:25:19,541
2025-07-30 22:25:19,514
2025-07-30 22:25:19,490
2025-07-30 22:25:19,533
2025-07-30 22:25:19,519
2025-07-30 22:25:19,483
2025-07-30 22:25:19,529
2025-07-30 22:25:19,547
2025-07-30 22:25:19,492
2025-07-30 22:25:19,517
2025-07-30 22:25:19,532
2025-07-30 22:25:19,493
2025-07-30 22:25:19,515
2025-07-30 22:25:19,554
2025-07-30 22:25:19,506
2025-07-30 22:25:19,502
2025-07-30 22:25:19,539
2025-07-30 22:25:19,526
2025-07-30 22:25:19,495
2025-07-30 22:25:19,528
2025-07-30 22:25:19,520
2025-07-30 22:25:19,488
2025-07-30 22:25:19,521
2025-07-30 22:25:19,548
2025-07-30 22:25:19,504
2025-07-30 22:25:19,526
2025-07-30 22:25:19,542
2025-07-30 22:25:19,499
2025-07-30 22:25:19,509
2025-07-30 22:25:19,536
2025-07-30 22:25:19,499
2025-07-30 22:25:19,497
2025-07-30 22:25:19,546
2025-07-30 22:25:19,518
2025-07-30 22:25:19,480
2025-07-30 22:25:19,538
2025-07-30 22:25:19,509
2025-07-30 22:25:19,473
2025-07-30 22:25:19,524
2025-07-30 22:25:19,536
2025-07-30 22:25:19,497
2025-07-30 22:25:19,516
2025-07-30 22:25:19,542
2025-07-30 22:25:19,497
2025-07-30 22:25:20,495
2025-07-30 22:25:20,543
2025-07-30 22:25:20,513
2025-07-30 22:25:20,503
2025-07-30 22:25:20,539
2025-07-30 22:25:20,517
2025-07-30 22:25:20,490
2025-07-30 22:25:20,531
2025-07-30 22:25:20,529
2025-07-30 22:25:20,491
2025-07-30 22:25:20,511
2025-07-30 22:25:20,537
2025-07-30 22:25:20,484
2025-07-30 22:25:20,509
2025-07-30 22:25:20,537
2025-07-30 22:25:20,516
2025-07-30 22:25:20,510
2025-07-30 22:25:20,538
2025-07-30 22:25:20,515
2025-07-30 22:25:20,501
2025-07-30 22:25:20,537
2025-07-30 22:25:20,512
2025-07-30 22:25:20,497
2025-07-30 22:25:20,529
2025-07-30 22:25:20,526
2025-07-30 22:25:20,488
2025-07-30 22:25:20,522
2025-07-30 22:25:20,538
2025-07-30 22:25:20,491
2025-07-30 22:25:20,511
2025-07-30 22:25:20,535
2025-07-30 22:25:20,481
2025-07-30 22:25:20,507
2025-07-30 22:25:20,536
2025-07-30 22:25:20,505
2025-07-30 22:25:20,498
2025-07-30 22:25:20,542
2025-07-30 22:25:20,525
2025-07-30 22:25:20,489
2025-07-30 22:25:20,523
2025-07-30 22:25:20,518
2025-07-30 22:25:20,480
2025-07-30 22:25:20,528
2025-07-30 22:25:20,542
2025-07-30 22:25:20,487
2025-07-30 22:25:20,511
2025-07-30 22:25:20,540
2025-07-30 22:25:20,506
2025-07-30 22:25:20,501
2025-07-30 22:25:20,539
2025-07-30 22:25:20,513
2025-07-30 22:25:20,494
2025-07-30 22:25:20,509
2025-07-30 22:25:20,535
2025-07-30 22:25:20,504
2025-07-30 22:25:20,532
2025-07-30 22:25:20,535
2025-07-30 22:25:20,490
2025-07-30 22:25:20,514
2025-07-30 22:25:20,522
2025-07-30 22:25:20,494
2025-07-30 22:25:20,508
2025-07-30 22:25:20,547
2025-07-30 22:25:20,514
2025-07-30 22:25:20,495
2025-07-30 22:25:20,536
2025-07-30 22:25:20,516
2025-07-30 22:25:20,489
2025-07-30 22:25:20,532
2025-07-30 22:25:20,524
2025-07-30 22:25:20,484
2025-07-30 22:25:20,518
2025-07-30 22:25:20,527
2025-07-30 22:25:20,493
2025-07-30 22:25:20,520
2025-07-30 22:25:20,542
2025-07-30 22:25:20,499
2025-07-30 22:25:20,509
2025-07-30 22:25:20,537
2025-07-30 22:25:20,506
2025-07-30 22:25:20,491
2025-07-30 22:25:20,542
2025-07-30 22:25:20,519
2025-07-30 22:25:20,491
2025-07-30 22:25:20,524
2025-07-30 22:25:20,506
2025-07-30 22:25:20,483
2025-07-30 22:25:20,530
2025-07-30 22:25:20,541
2025-07-30 22:25:20,500
2025-07-30 22:25:20,513
2025-07-30 22:25:20,511
2025-07-30 22:25:20,499
2025-07-30 22:25:20,508
2025-07-30 22:25:20,543
2025-07-30 22:25:20,509
2025-07-30 22:25:20,501
2025-07-30 22:25:20,535
2025-07-30 22:25:20,514
2025-07-30 22:25:20,479
2025-07-30 22:25:20,525
2025-07-30 22:25:20,527
2025-07-30 22:25:20,495
2025-07-30 22:25:20,529
2025-07-30 22:25:20,540
2025-07-30 22:25:20,489
2025-07-30 22:25:20,504
2025-07-30 22:25:20,532
2025-07-30 22:25:20,489
2025-07-30 22:25:20,483
2025-07-30 22:25:20,552
2025-07-30 22:25:20,517
2025-07-30 22:25:20,499
2025-07-30 22:25:20,541
2025-07-30 22:25:20,518
2025-07-30 22:25:20,484
2025-07-30 22:25:20,528
2025-07-30 22:25:20,526
2025-07-30 22:25:20,462
2025-07-30 22:25:20,515
2025-07-30 22:25:20,547
2025-07-30 22:25:20,499
2025-07-30 22:25:20,511
2025-07-30 22:25:20,545
2025-07-30 22:25:20,497
2025-07-30 22:25:20,496
2025-07-30 22:25:20,523
2025-07-30 22:25:20,505
2025-07-30 22:25:20,499
2025-07-30 22:25:20,548
2025-07-30 22:25:20,523
2025-07-30 22:25:20,490
2025-07-30 22:25:20,527
2025-07-30 22:25:20,510
2025-07-30 22:25:20,457
2025-07-30 22:25:20,526
2025-07-30 22:25:20,546
2025-07-30 22:25:20,508
2025-07-30 22:25:20,518
2025-07-30 22:25:20,538
2025-07-30 22:25:20,501
2025-07-30 22:25:20,492
2025-07-30 22:25:20,523
2025-07-30 22:25:20,496
2025-07-30 22:25:20,484
2025-07-30 22:25:20,547
2025-07-30 22:25:20,535
2025-07-30 22:25:20,493
2025-07-30 22:25:20,529
2025-07-30 22:25:20,520
2025-07-30 22:25:20,474
2025-07-30 22:25:20,517
2025-07-30 22:25:20,549
2025-07-30 22:25:20,502
2025-07-30 22:25:20,511
2025-07-30 22:25:20,536
2025-07-30 22:25:20,495
2025-07-30 22:25:20,494
2025-07-30 22:25:20,533
2025-07-30 22:25:20,513
2025-07-30 22:25:20,497
2025-07-30 22:25:20,538
2025-07-30 22:25:20,519
2025-07-30 22:25:20,486
2025-07-30 22:25:20,524
2025-07-30 22:25:20,513
2025-07-30 22:25:20,485
2025-07-30 22:25:20,524
2025-07-30 22:25:20,533
2025-07-30 22:25:20,487
2025-07-30 22:25:20,480
2025-07-30 22:25:20,549
2025-07-30 22:25:20,510
2025-07-30 22:25:20,497
2025-07-30 22:25:20,540
2025-07-30 22:25:20,507
2025-07-30 22:25:20,496
2025-07-30 22:25:20,532
2025-07-30 22:25:20,529
2025-07-30 22:25:20,486
2025-07-30 22:25:20,520
2025-07-30 22:25:20,527
2025-07-30 22:25:20,479
2025-07-30 22:25:20,513
2025-07-30 22:25:20,544
2025-07-30 22:25:20,503
2025-07-30 22:25:20,505
2025-07-30 22:25:20,530
2025-07-30 22:25:20,500
2025-07-30 22:25:20,498
2025-07-30 22:25:20,522
2025-07-30 22:25:21,527
2025-07-30 22:25:21,501
2025-07-30 22:25:21,534
2025-07-30 22:25:21,530
2025-07-30 22:25:21,486
2025-07-30 22:25:21,526
2025-07-30 22:25:21,537
2025-07-30 22:25:21,498
2025-07-30 22:25:21,510
2025-07-30 22:25:21,543
2025-07-30 22:25:21,491
2025-07-30 22:25:21,503
2025-07-30 22:25:21,536
2025-07-30 22:25:21,499
2025-07-30 22:25:21,505
2025-07-30 22:25:21,538
2025-07-30 22:25:21,510
2025-07-30 22:25:21,488
2025-07-30 22:25:21,540
2025-07-30 22:25:21,533
2025-07-30 22:25:21,478
2025-07-30 22:25:21,521
2025-07-30 22:25:21,525
2025-07-30 22:25:21,485
2025-07-30 22:25:21,526
2025-07-30 22:25:21,558
2025-07-30 22:25:21,505
2025-07-30 22:25:21,508
2025-07-30 22:25:21,543
2025-07-30 22:25:21,497
2025-07-30 22:25:21,492
2025-07-30 22:25:21,538
2025-07-30 22:25:21,517
2025-07-30 22:25:21,497
2025-07-30 22:25:21,532
2025-07-30 22:25:21,527
2025-07-30 22:25:21,492
2025-07-30 22:25:21,517
2025-07-30 22:25:21,539
2025-07-30 22:25:21,500
2025-07-30 22:25:21,513
2025-07-30 22:25:21,543
2025-07-30 22:25:21,493
2025-07-30 22:25:21,495
2025-07-30 22:25:21,539
2025-07-30 22:25:21,514
2025-07-30 22:25:21,494
2025-07-30 22:25:21,543
2025-07-30 22:25:21,526
2025-07-30 22:25:21,484
2025-07-30 22:25:21,523
2025-07-30 22:25:21,532
2025-07-30 22:25:21,491
2025-07-30 22:25:21,523
2025-07-30 22:25:21,537
2025-07-30 22:25:21,481
2025-07-30 22:25:21,523
2025-07-30 22:25:21,544
2025-07-30 22:25:21,507
2025-07-30 22:25:21,507
2025-07-30 22:25:21,539
2025-07-30 22:25:21,506
2025-07-30 22:25:21,493
2025-07-30 22:25:21,529
2025-07-30 22:25:21,531
2025-07-30 22:25:21,494
2025-07-30 22:25:21,519
2025-07-30 22:25:21,534
2025-07-30 22:25:21,493
2025-07-30 22:25:21,510
2025-07-30 22:25:21,548
2025-07-30 22:25:21,494
2025-07-30 22:25:21,499
2025-07-30 22:25:21,540
2025-07-30 22:25:21,500
2025-07-30 22:25:21,488
2025-07-30 22:25:21,540
2025-07-30 22:25:21,523
2025-07-30 22:25:21,498
2025-07-30 22:25:21,533
2025-07-30 22:25:21,532
2025-07-30 22:25:21,493
2025-07-30 22:25:21,524
2025-07-30 22:25:21,535
2025-07-30 22:25:21,493
2025-07-30 22:25:21,513
2025-07-30 22:25:21,537
2025-07-30 22:25:21,496
2025-07-30 22:25:21,483
2025-07-30 22:25:21,544
2025-07-30 22:25:21,512
2025-07-30 22:25:21,507
2025-07-30 22:25:21,543
2025-07-30 22:25:21,518
2025-07-30 22:25:21,477
2025-07-30 22:25:21,540
2025-07-30 22:25:21,531
2025-07-30 22:25:21,488
2025-07-30 22:25:21,527
2025-07-30 22:25:21,530
2025-07-30 22:25:21,490
2025-07-30 22:25:21,515
2025-07-30 22:25:21,543
2025-07-30 22:25:21,495
2025-07-30 22:25:21,499
2025-07-30 22:25:21,542
2025-07-30 22:25:21,507
2025-07-30 22:25:21,498
2025-07-30 22:25:21,531
2025-07-30 22:25:21,515
2025-07-30 22:25:21,493
2025-07-30 22:25:21,536
2025-07-30 22:25:21,522
2025-07-30 22:25:21,489
2025-07-30 22:25:21,518
2025-07-30 22:25:21,527
2025-07-30 22:25:21,491
2025-07-30 22:25:21,513
2025-07-30 22:25:21,536
2025-07-30 22:25:21,498
2025-07-30 22:25:21,505
2025-07-30 22:25:21,539
2025-07-30 22:25:21,508
2025-07-30 22:25:21,485
2025-07-30 22:25:21,537
2025-07-30 22:25:21,516
2025-07-30 22:25:21,487
2025-07-30 22:25:21,527
2025-07-30 22:25:21,520
2025-07-30 22:25:21,475
2025-07-30 22:25:21,508
2025-07-30 22:25:21,540
2025-07-30 22:25:21,490
2025-07-30 22:25:21,507
2025-07-30 22:25:21,541
2025-07-30 22:25:21,489
2025-07-30 22:25:21,495
2025-07-30 22:25:21,541
2025-07-30 22:25:21,503
2025-07-30 22:25:21,485
2025-07-30 22:25:21,528
2025-07-30 22:25:21,515
2025-07-30 22:25:21,490
2025-07-30 22:25:21,525
2025-07-30 22:25:21,524
2025-07-30 22:25:21,486
2025-07-30 22:25:21,518
2025-07-30 22:25:21,537
2025-07-30 22:25:21,498
2025-07-30 22:25:21,502
2025-07-30 22:25:21,527
2025-07-30 22:25:21,500
2025-07-30 22:25:21,496
2025-07-30 22:25:21,545
2025-07-30 22:25:21,505
2025-07-30 22:25:21,481
2025-07-30 22:25:21,539
2025-07-30 22:25:21,522
2025-07-30 22:25:21,488
2025-07-30 22:25:21,528
2025-07-30 22:25:21,533
2025-07-30 22:25:21,487
2025-07-30 22:25:21,512
2025-07-30 22:25:21,525
2025-07-30 22:25:21,479
2025-07-30 22:25:21,503
2025-07-30 22:25:21,524
2025-07-30 22:25:21,500
2025-07-30 22:25:21,504
2025-07-30 22:25:21,537
2025-07-30 22:25:21,511
2025-07-30 22:25:21,488
2025-07-30 22:25:21,529
2025-07-30 22:25:21,526
2025-07-30 22:25:21,490
2025-07-30 22:25:21,516
2025-07-30 22:25:21,528
2025-07-30 22:25:21,469
2025-07-30 22:25:21,523
2025-07-30 22:25:21,540
2025-07-30 22:25:21,504
2025-07-30 22:25:21,500
2025-07-30 22:25:21,528
2025-07-30 22:25:21,491
2025-07-30 22:25:21,492
2025-07-30 22:25:21,538
2025-07-30 22:25:21,517
2025-07-30 22:25:21,492
2025-07-30 22:25:21,530
2025-07-30 22:25:21,524
2025-07-30 22:25:21,481
2025-07-30 22:25:21,524
2025-07-30 22:25:21,519
2025-07-30 22:25:21,487
2025-07-30 22:25:22,512
2025-07-30 22:25:22,530
2025-07-30 22:25:22,498
2025-07-30 22:25:22,498
2025-07-30 22:25:22,526
2025-07-30 22:25:22,503
2025-07-30 22:25:22,505
2025-07-30 22:25:22,548
2025-07-30 22:25:22,517
2025-07-30 22:25:22,490
2025-07-30 22:25:22,529
2025-07-30 22:25:22,517
2025-07-30 22:25:22,490
2025-07-30 22:25:22,520
2025-07-30 22:25:22,520
2025-07-30 22:25:22,479
2025-07-30 22:25:22,520
2025-07-30 22:25:22,538
2025-07-30 22:25:22,493
2025-07-30 22:25:22,502
2025-07-30 22:25:22,542
2025-07-30 22:25:22,501
2025-07-30 22:25:22,490
2025-07-30 22:25:22,528
2025-07-30 22:25:22,517
2025-07-30 22:25:22,487
2025-07-30 22:25:22,547
2025-07-30 22:25:22,532
2025-07-30 22:25:22,471
2025-07-30 22:25:22,519
2025-07-30 22:25:22,537
2025-07-30 22:25:22,490
2025-07-30 22:25:22,507
2025-07-30 22:25:22,535
2025-07-30 22:25:22,498
2025-07-30 22:25:22,498
2025-07-30 22:25:22,537
2025-07-30 22:25:22,495
2025-07-30 22:25:22,485
2025-07-30 22:25:22,548
2025-07-30 22:25:22,517
2025-07-30 22:25:22,492
2025-07-30 22:25:22,527
2025-07-30 22:25:22,522
2025-07-30 22:25:22,485
2025-07-30 22:25:22,528
2025-07-30 22:25:22,534
2025-07-30 22:25:22,491
2025-07-30 22:25:22,506
2025-07-30 22:25:22,525
2025-07-30 22:25:22,487
2025-07-30 22:25:22,504
2025-07-30 22:25:22,544
2025-07-30 22:25:22,509
2025-07-30 22:25:22,493
2025-07-30 22:25:22,536
2025-07-30 22:25:22,524
2025-07-30 22:25:22,484
2025-07-30 22:25:22,517
2025-07-30 22:25:22,503
2025-07-30 22:25:22,500
2025-07-30 22:25:22,533
2025-07-30 22:25:22,544
2025-07-30 22:25:22,503
2025-07-30 22:25:22,513
2025-07-30 22:25:22,542
2025-07-30 22:25:22,497
2025-07-30 22:25:22,491
2025-07-30 22:25:22,545
2025-07-30 22:25:22,509
2025-07-30 22:25:22,488
2025-07-30 22:25:22,530
2025-07-30 22:25:22,516
2025-07-30 22:25:22,486
2025-07-30 22:25:22,536
2025-07-30 22:25:22,534
2025-07-30 22:25:22,494
2025-07-30 22:25:22,524
2025-07-30 22:25:22,539
2025-07-30 22:25:22,486
2025-07-30 22:25:22,505
2025-07-30 22:25:22,534
2025-07-30 22:25:22,499
2025-07-30 22:25:22,488
2025-07-30 22:25:22,543
2025-07-30 22:25:22,513
2025-07-30 22:25:22,495
2025-07-30 22:25:22,539
2025-07-30 22:25:22,530
2025-07-30 22:25:22,496
2025-07-30 22:25:22,528
2025-07-30 22:25:22,529
2025-07-30 22:25:22,485
2025-07-30 22:25:22,514
2025-07-30 22:25:22,541
2025-07-30 22:25:22,496
2025-07-30 22:25:22,501
2025-07-30 22:25:22,529
2025-07-30 22:25:22,501
2025-07-30 22:25:22,494
2025-07-30 22:25:22,531
2025-07-30 22:25:22,506
2025-07-30 22:25:22,490
2025-07-30 22:25:22,542
2025-07-30 22:25:22,529
2025-07-30 22:25:22,481
2025-07-30 22:25:22,527
2025-07-30 22:25:22,531
2025-07-30 22:25:22,481
2025-07-30 22:25:22,520
2025-07-30 22:25:22,540
2025-07-30 22:25:22,494
2025-07-30 22:25:22,506
2025-07-30 22:25:22,541
2025-07-30 22:25:22,500
2025-07-30 22:25:22,483
2025-07-30 22:25:22,536
2025-07-30 22:25:22,524
2025-07-30 22:25:22,494
2025-07-30 22:25:22,531
2025-07-30 22:25:22,522
2025-07-30 22:25:22,486
2025-07-30 22:25:22,518
2025-07-30 22:25:22,541
2025-07-30 22:25:22,495
2025-07-30 22:25:22,508
2025-07-30 22:25:22,524
2025-07-30 22:25:22,487
2025-07-30 22:25:22,500
2025-07-30 22:25:22,550
2025-07-30 22:25:22,518
2025-07-30 22:25:22,497
2025-07-30 22:25:22,533
2025-07-30 22:25:22,513
2025-07-30 22:25:22,490
2025-07-30 22:25:22,533
2025-07-30 22:25:22,510
2025-07-30 22:25:22,490
2025-07-30 22:25:22,523
2025-07-30 22:25:22,534
2025-07-30 22:25:22,499
2025-07-30 22:25:22,513
2025-07-30 22:25:22,534
2025-07-30 22:25:22,500
2025-07-30 22:25:22,504
2025-07-30 22:25:22,536
2025-07-30 22:25:22,506
2025-07-30 22:25:22,478
2025-07-30 22:25:22,538
2025-07-30 22:25:22,529
2025-07-30 22:25:22,496
2025-07-30 22:25:22,523
2025-07-30 22:25:22,515
2025-07-30 22:25:22,491
2025-07-30 22:25:22,520
2025-07-30 22:25:22,531
2025-07-30 22:25:22,494
2025-07-30 22:25:22,510
2025-07-30 22:25:22,527
2025-07-30 22:25:22,505
2025-07-30 22:25:22,514
2025-07-30 22:25:22,546
2025-07-30 22:25:22,514
2025-07-30 22:25:22,499
2025-07-30 22:25:22,538
2025-07-30 22:25:22,521
2025-07-30 22:25:22,483
2025-07-30 22:25:22,528
2025-07-30 22:25:22,535
2025-07-30 22:25:22,498
2025-07-30 22:25:22,527
2025-07-30 22:25:22,533
2025-07-30 22:25:22,490
2025-07-30 22:25:22,504
2025-07-30 22:25:22,546
2025-07-30 22:25:22,519
2025-07-30 22:25:22,512
2025-07-30 22:25:22,546
2025-07-30 22:25:22,514
2025-07-30 22:25:22,495
2025-07-30 22:25:22,533
2025-07-30 22:25:22,526
2025-07-30 22:25:22,487
2025-07-30 22:25:22,531
2025-07-30 22:25:22,525
2025-07-30 22:25:22,489
2025-07-30 22:25:22,519
2025-07-30 22:25:22,555
2025-07-30 22:25:22,507
2025-07-30 22:25:22,505
2025-07-30 22:25:22,531
2025-07-30 22:25:22,516
2025-07-30 22:25:22,512
2025-07-30 22:25:23,552
2025-07-30 22:25:23,516
2025-07-30 22:25:23,491
2025-07-30 22:25:23,532
2025-07-30 22:25:23,528
2025-07-30 22:25:23,506
2025-07-30 22:25:23,534
2025-07-30 22:25:23,535
2025-07-30 22:25:23,489
2025-07-30 22:25:23,520
2025-07-30 22:25:23,547
2025-07-30 22:25:23,506
2025-07-30 22:25:23,521
2025-07-30 22:25:23,549
2025-07-30 22:25:23,511
2025-07-30 22:25:23,497
2025-07-30 22:25:23,543
2025-07-30 22:25:23,525
2025-07-30 22:25:23,480
2025-07-30 22:25:23,544
2025-07-30 22:25:23,538
2025-07-30 22:25:23,492
2025-07-30 22:25:23,528
2025-07-30 22:25:23,537
2025-07-30 22:25:23,495
2025-07-30 22:25:23,518
2025-07-30 22:25:23,557
2025-07-30 22:25:23,514
2025-07-30 22:25:23,515
2025-07-30 22:25:23,542
2025-07-30 22:25:23,502
2025-07-30 22:25:23,501
2025-07-30 22:25:23,555
2025-07-30 22:25:23,528
2025-07-30 22:25:23,500
2025-07-30 22:25:23,544
2025-07-30 22:25:23,534
2025-07-30 22:25:23,475
2025-07-30 22:25:23,531
2025-07-30 22:25:23,550
2025-07-30 22:25:23,504
2025-07-30 22:25:23,526
2025-07-30 22:25:23,542
2025-07-30 22:25:23,495
2025-07-30 22:25:23,502
2025-07-30 22:25:23,551
2025-07-30 22:25:23,521
2025-07-30 22:25:23,507
2025-07-30 22:25:23,546
2025-07-30 22:25:23,526
2025-07-30 22:25:23,490
2025-07-30 22:25:23,537
2025-07-30 22:25:23,525
2025-07-30 22:25:23,488
2025-07-30 22:25:23,531
