Timestamp,Valor Analogico
2025-07-30 22:19:11,483
2025-07-30 22:19:11,468
2025-07-30 22:19:11,444
2025-07-30 22:19:11,418
2025-07-30 22:19:11,399
2025-07-30 22:19:11,388
2025-07-30 22:19:11,384
2025-07-30 22:19:11,384
2025-07-30 22:19:11,384
2025-07-30 22:19:11,383
2025-07-30 22:19:11,378
2025-07-30 22:19:11,369
2025-07-30 22:19:11,357
2025-07-30 22:19:11,344
2025-07-30 22:19:11,333
2025-07-30 22:19:11,326
2025-07-30 22:19:11,324
2025-07-30 22:19:11,330
2025-07-30 22:19:11,372
2025-07-30 22:19:11,353
2025-07-30 22:19:11,329
2025-07-30 22:19:11,373
2025-07-30 22:19:11,370
2025-07-30 22:19:11,335
2025-07-30 22:19:11,367
2025-07-30 22:19:11,380
2025-07-30 22:19:11,343
2025-07-30 22:19:11,366
2025-07-30 22:19:11,390
2025-07-30 22:19:11,355
2025-07-30 22:19:11,363
2025-07-30 22:19:11,399
2025-07-30 22:19:11,369
2025-07-30 22:19:11,361
2025-07-30 22:19:11,404
2025-07-30 22:19:11,386
2025-07-30 22:19:11,363
2025-07-30 22:19:11,405
2025-07-30 22:19:11,403
2025-07-30 22:19:11,368
2025-07-30 22:19:11,403
2025-07-30 22:19:11,415
2025-07-30 22:19:11,377
2025-07-30 22:19:11,398
2025-07-30 22:19:11,425
2025-07-30 22:19:11,389
2025-07-30 22:19:11,394
2025-07-30 22:19:11,430
2025-07-30 22:19:11,402
2025-07-30 22:19:11,393
2025-07-30 22:19:11,432
2025-07-30 22:19:11,414
2025-07-30 22:19:11,390
2025-07-30 22:19:11,431
2025-07-30 22:19:11,429
2025-07-30 22:19:11,393
2025-07-30 22:19:11,425
2025-07-30 22:19:11,438
2025-07-30 22:19:11,398
2025-07-30 22:19:11,418
2025-07-30 22:19:11,448
2025-07-30 22:19:11,410
2025-07-30 22:19:11,412
2025-07-30 22:19:11,452
2025-07-30 22:19:11,423
2025-07-30 22:19:11,411
2025-07-30 22:19:11,451
2025-07-30 22:19:11,437
2025-07-30 22:19:11,414
2025-07-30 22:19:11,454
2025-07-30 22:19:11,453
2025-07-30 22:19:11,418
2025-07-30 22:19:11,449
2025-07-30 22:19:11,464
2025-07-30 22:19:11,425
2025-07-30 22:19:11,443
2025-07-30 22:19:11,471
2025-07-30 22:19:11,433
2025-07-30 22:19:11,435
2025-07-30 22:19:11,472
2025-07-30 22:19:11,443
2025-07-30 22:19:11,429
2025-07-30 22:19:11,471
2025-07-30 22:19:11,459
2025-07-30 22:19:11,431
2025-07-30 22:19:11,470
2025-07-30 22:19:11,470
2025-07-30 22:19:11,435
2025-07-30 22:19:11,466
2025-07-30 22:19:11,479
2025-07-30 22:19:11,441
2025-07-30 22:19:11,459
2025-07-30 22:19:11,488
2025-07-30 22:19:11,450
2025-07-30 22:19:11,450
2025-07-30 22:19:11,488
2025-07-30 22:19:11,460
2025-07-30 22:19:11,445
2025-07-30 22:19:11,488
2025-07-30 22:19:11,475
2025-07-30 22:19:11,446
2025-07-30 22:19:11,483
2025-07-30 22:19:11,486
2025-07-30 22:19:11,450
2025-07-30 22:19:11,479
2025-07-30 22:19:11,493
2025-07-30 22:19:11,457
2025-07-30 22:19:11,474
2025-07-30 22:19:11,502
2025-07-30 22:19:11,467
2025-07-30 22:19:11,467
2025-07-30 22:19:11,505
2025-07-30 22:19:11,479
2025-07-30 22:19:11,462
2025-07-30 22:19:11,502
2025-07-30 22:19:11,489
2025-07-30 22:19:11,458
2025-07-30 22:19:11,496
2025-07-30 22:19:11,499
2025-07-30 22:19:11,461
2025-07-30 22:19:11,486
2025-07-30 22:19:11,505
2025-07-30 22:19:11,466
2025-07-30 22:19:11,480
2025-07-30 22:19:11,508
2025-07-30 22:19:11,476
2025-07-30 22:19:11,475
2025-07-30 22:19:11,514
2025-07-30 22:19:11,488
2025-07-30 22:19:11,470
2025-07-30 22:19:11,510
2025-07-30 22:19:11,498
2025-07-30 22:19:11,468
2025-07-30 22:19:11,505
2025-07-30 22:19:11,509
2025-07-30 22:19:11,471
2025-07-30 22:19:11,498
2025-07-30 22:19:11,517
2025-07-30 22:19:11,477
2025-07-30 22:19:11,487
2025-07-30 22:19:11,518
2025-07-30 22:19:11,486
2025-07-30 22:19:11,481
2025-07-30 22:19:11,519
2025-07-30 22:19:11,496
2025-07-30 22:19:11,477
2025-07-30 22:19:11,517
2025-07-30 22:19:11,505
2025-07-30 22:19:11,474
2025-07-30 22:19:11,510
2025-07-30 22:19:11,514
2025-07-30 22:19:11,475
2025-07-30 22:19:11,501
2025-07-30 22:19:11,523
2025-07-30 22:19:11,484
2025-07-30 22:19:11,496
2025-07-30 22:19:11,528
2025-07-30 22:19:11,492
2025-07-30 22:19:11,487
2025-07-30 22:19:11,527
2025-07-30 22:19:11,503
2025-07-30 22:19:11,482
2025-07-30 22:19:11,522
2025-07-30 22:19:11,513
2025-07-30 22:19:11,481
2025-07-30 22:19:11,518
2025-07-30 22:19:11,522
2025-07-30 22:19:11,483
2025-07-30 22:19:11,507
2025-07-30 22:19:11,528
2025-07-30 22:19:11,488
2025-07-30 22:19:11,497
2025-07-30 22:19:11,531
2025-07-30 22:19:11,498
2025-07-30 22:19:11,491
2025-07-30 22:19:11,532
2025-07-30 22:19:11,510
2025-07-30 22:19:11,487
2025-07-30 22:19:11,527
2025-07-30 22:19:11,520
2025-07-30 22:19:12,486
2025-07-30 22:19:12,519
2025-07-30 22:19:12,524
2025-07-30 22:19:12,488
2025-07-30 22:19:12,512
2025-07-30 22:19:12,534
2025-07-30 22:19:12,495
2025-07-30 22:19:12,503
2025-07-30 22:19:12,537
2025-07-30 22:19:12,505
2025-07-30 22:19:12,495
2025-07-30 22:19:12,534
2025-07-30 22:19:12,514
2025-07-30 22:19:12,492
2025-07-30 22:19:12,532
2025-07-30 22:19:12,526
2025-07-30 22:19:12,490
2025-07-30 22:19:12,521
2025-07-30 22:19:12,533
2025-07-30 22:19:12,495
2025-07-30 22:19:12,516
2025-07-30 22:19:12,538
2025-07-30 22:19:12,500
2025-07-30 22:19:12,506
2025-07-30 22:19:12,541
2025-07-30 22:19:12,508
2025-07-30 22:19:12,497
2025-07-30 22:19:12,536
2025-07-30 22:19:12,517
2025-07-30 22:19:12,491
2025-07-30 22:19:12,532
2025-07-30 22:19:12,527
2025-07-30 22:19:12,491
2025-07-30 22:19:12,524
2025-07-30 22:19:12,536
2025-07-30 22:19:12,495
2025-07-30 22:19:12,514
2025-07-30 22:19:12,541
2025-07-30 22:19:12,503
2025-07-30 22:19:12,506
2025-07-30 22:19:12,541
2025-07-30 22:19:12,510
2025-07-30 22:19:12,499
2025-07-30 22:19:12,540
2025-07-30 22:19:12,520
2025-07-30 22:19:12,494
2025-07-30 22:19:12,534
2025-07-30 22:19:12,531
2025-07-30 22:19:12,493
2025-07-30 22:19:12,525
2025-07-30 22:19:12,538
2025-07-30 22:19:12,496
2025-07-30 22:19:12,516
2025-07-30 22:19:12,544
2025-07-30 22:19:12,506
2025-07-30 22:19:12,510
2025-07-30 22:19:12,549
2025-07-30 22:19:12,519
2025-07-30 22:19:12,506
2025-07-30 22:19:12,546
2025-07-30 22:19:12,527
2025-07-30 22:19:12,502
2025-07-30 22:19:12,540
2025-07-30 22:19:12,538
2025-07-30 22:19:12,502
2025-07-30 22:19:12,534
2025-07-30 22:19:12,548
2025-07-30 22:19:12,506
2025-07-30 22:19:12,524
2025-07-30 22:19:12,551
2025-07-30 22:19:12,513
2025-07-30 22:19:12,513
2025-07-30 22:19:12,552
2025-07-30 22:19:12,522
2025-07-30 22:19:12,506
2025-07-30 22:19:12,547
2025-07-30 22:19:12,532
2025-07-30 22:19:12,502
2025-07-30 22:19:12,540
2025-07-30 22:19:12,539
2025-07-30 22:19:12,504
2025-07-30 22:19:12,532
2025-07-30 22:19:12,546
2025-07-30 22:19:12,507
2025-07-30 22:19:12,524
2025-07-30 22:19:12,553
2025-07-30 22:19:12,516
2025-07-30 22:19:12,516
2025-07-30 22:19:12,553
2025-07-30 22:19:12,527
2025-07-30 22:19:12,510
2025-07-30 22:19:12,551
2025-07-30 22:19:12,537
2025-07-30 22:19:12,505
2025-07-30 22:19:12,542
2025-07-30 22:19:12,545
2025-07-30 22:19:12,506
2025-07-30 22:19:12,534
2025-07-30 22:19:12,548
2025-07-30 22:19:12,510
2025-07-30 22:19:12,525
2025-07-30 22:19:12,554
2025-07-30 22:19:12,517
2025-07-30 22:19:12,517
2025-07-30 22:19:12,556
2025-07-30 22:19:12,529
2025-07-30 22:19:12,510
2025-07-30 22:19:12,552
2025-07-30 22:19:12,541
2025-07-30 22:19:12,510
2025-07-30 22:19:12,545
2025-07-30 22:19:12,549
2025-07-30 22:19:12,512
2025-07-30 22:19:12,537
2025-07-30 22:19:12,556
2025-07-30 22:19:12,517
2025-07-30 22:19:12,529
2025-07-30 22:19:12,559
2025-07-30 22:19:12,525
2025-07-30 22:19:12,521
2025-07-30 22:19:12,559
2025-07-30 22:19:12,534
2025-07-30 22:19:12,515
2025-07-30 22:19:12,555
2025-07-30 22:19:12,543
2025-07-30 22:19:12,510
2025-07-30 22:19:12,546
2025-07-30 22:19:12,552
2025-07-30 22:19:12,512
2025-07-30 22:19:12,538
2025-07-30 22:19:12,557
2025-07-30 22:19:12,516
2025-07-30 22:19:12,526
2025-07-30 22:19:12,558
2025-07-30 22:19:12,523
2025-07-30 22:19:12,518
2025-07-30 22:19:12,556
2025-07-30 22:19:12,532
2025-07-30 22:19:12,514
2025-07-30 22:19:12,555
2025-07-30 22:19:12,541
2025-07-30 22:19:12,509
2025-07-30 22:19:12,546
2025-07-30 22:19:12,552
2025-07-30 22:19:12,514
2025-07-30 22:19:12,538
2025-07-30 22:19:12,559
2025-07-30 22:19:12,519
2025-07-30 22:19:12,529
2025-07-30 22:19:12,561
2025-07-30 22:19:12,526
2025-07-30 22:19:12,517
2025-07-30 22:19:12,556
2025-07-30 22:19:12,534
2025-07-30 22:19:12,511
2025-07-30 22:19:12,551
2025-07-30 22:19:12,541
2025-07-30 22:19:12,511
2025-07-30 22:19:12,545
2025-07-30 22:19:12,550
2025-07-30 22:19:12,512
2025-07-30 22:19:12,535
2025-07-30 22:19:12,556
2025-07-30 22:19:12,516
2025-07-30 22:19:12,523
2025-07-30 22:19:12,556
2025-07-30 22:19:12,523
2025-07-30 22:19:12,513
2025-07-30 22:19:12,552
2025-07-30 22:19:12,531
2025-07-30 22:19:12,508
2025-07-30 22:19:12,546
2025-07-30 22:19:12,541
2025-07-30 22:19:12,506
2025-07-30 22:19:12,539
2025-07-30 22:19:12,547
2025-07-30 22:19:12,510
2025-07-30 22:19:12,531
2025-07-30 22:19:12,554
2025-07-30 22:19:12,516
2025-07-30 22:19:12,522
2025-07-30 22:19:12,556
2025-07-30 22:19:12,525
2025-07-30 22:19:12,512
2025-07-30 22:19:12,553
2025-07-30 22:19:12,534
2025-07-30 22:19:12,507
2025-07-30 22:19:12,547
2025-07-30 22:19:12,543
2025-07-30 22:19:12,507
2025-07-30 22:19:12,538
2025-07-30 22:19:13,549
2025-07-30 22:19:13,509
2025-07-30 22:19:13,530
2025-07-30 22:19:13,552
2025-07-30 22:19:13,516
2025-07-30 22:19:13,520
2025-07-30 22:19:13,556
2025-07-30 22:19:13,523
2025-07-30 22:19:13,511
2025-07-30 22:19:13,552
2025-07-30 22:19:13,533
2025-07-30 22:19:13,507
2025-07-30 22:19:13,546
2025-07-30 22:19:13,543
2025-07-30 22:19:13,505
2025-07-30 22:19:13,536
2025-07-30 22:19:13,548
2025-07-30 22:19:13,506
2025-07-30 22:19:13,523
2025-07-30 22:19:13,550
2025-07-30 22:19:13,513
2025-07-30 22:19:13,515
2025-07-30 22:19:13,549
2025-07-30 22:19:13,520
2025-07-30 22:19:13,509
2025-07-30 22:19:13,551
2025-07-30 22:19:13,531
2025-07-30 22:19:13,503
2025-07-30 22:19:13,542
2025-07-30 22:19:13,538
2025-07-30 22:19:13,501
2025-07-30 22:19:13,531
2025-07-30 22:19:13,543
2025-07-30 22:19:13,504
2025-07-30 22:19:13,521
2025-07-30 22:19:13,547
2025-07-30 22:19:13,510
2025-07-30 22:19:13,512
2025-07-30 22:19:13,548
2025-07-30 22:19:13,519
2025-07-30 22:19:13,504
2025-07-30 22:19:13,544
2025-07-30 22:19:13,528
2025-07-30 22:19:13,502
2025-07-30 22:19:13,540
2025-07-30 22:19:13,537
2025-07-30 22:19:13,501
2025-07-30 22:19:13,530
2025-07-30 22:19:13,545
2025-07-30 22:19:13,503
2025-07-30 22:19:13,519
2025-07-30 22:19:13,547
2025-07-30 22:19:13,511
2025-07-30 22:19:13,510
2025-07-30 22:19:13,549
2025-07-30 22:19:13,521
2025-07-30 22:19:13,503
2025-07-30 22:19:13,541
2025-07-30 22:19:13,529
2025-07-30 22:19:13,500
2025-07-30 22:19:13,539
2025-07-30 22:19:13,540
2025-07-30 22:19:13,504
2025-07-30 22:19:13,530
2025-07-30 22:19:13,546
2025-07-30 22:19:13,507
2025-07-30 22:19:13,521
2025-07-30 22:19:13,551
2025-07-30 22:19:13,514
2025-07-30 22:19:13,510
2025-07-30 22:19:13,548
2025-07-30 22:19:13,522
2025-07-30 22:19:13,502
2025-07-30 22:19:13,542
2025-07-30 22:19:13,529
2025-07-30 22:19:13,497
2025-07-30 22:19:13,534
2025-07-30 22:19:13,539
2025-07-30 22:19:13,500
2025-07-30 22:19:13,528
2025-07-30 22:19:13,544
2025-07-30 22:19:13,507
2025-07-30 22:19:13,520
2025-07-30 22:19:13,550
2025-07-30 22:19:13,513
2025-07-30 22:19:13,510
2025-07-30 22:19:13,549
2025-07-30 22:19:13,524
2025-07-30 22:19:13,506
2025-07-30 22:19:13,547
2025-07-30 22:19:13,533
2025-07-30 22:19:13,501
2025-07-30 22:19:13,539
2025-07-30 22:19:13,544
2025-07-30 22:19:13,504
2025-07-30 22:19:13,528
2025-07-30 22:19:13,548
2025-07-30 22:19:13,507
2025-07-30 22:19:13,518
2025-07-30 22:19:13,549
2025-07-30 22:19:13,516
2025-07-30 22:19:13,514
2025-07-30 22:19:13,552
2025-07-30 22:19:13,528
2025-07-30 22:19:13,510
2025-07-30 22:19:13,550
2025-07-30 22:19:13,538
2025-07-30 22:19:13,507
2025-07-30 22:19:13,541
2025-07-30 22:19:13,546
2025-07-30 22:19:13,509
2025-07-30 22:19:13,533
2025-07-30 22:19:13,552
2025-07-30 22:19:13,515
2025-07-30 22:19:13,524
2025-07-30 22:19:13,556
2025-07-30 22:19:13,524
2025-07-30 22:19:13,516
2025-07-30 22:19:13,552
2025-07-30 22:19:13,529
2025-07-30 22:19:13,507
2025-07-30 22:19:13,546
2025-07-30 22:19:13,538
2025-07-30 22:19:13,505
2025-07-30 22:19:13,538
2025-07-30 22:19:13,543
2025-07-30 22:19:13,503
2025-07-30 22:19:13,524
2025-07-30 22:19:13,545
2025-07-30 22:19:13,508
2025-07-30 22:19:13,516
2025-07-30 22:19:13,549
2025-07-30 22:19:13,516
2025-07-30 22:19:13,507
2025-07-30 22:19:13,543
2025-07-30 22:19:13,524
2025-07-30 22:19:13,501
2025-07-30 22:19:13,538
2025-07-30 22:19:13,531
2025-07-30 22:19:13,502
2025-07-30 22:19:13,533
2025-07-30 22:19:13,541
2025-07-30 22:19:13,504
2025-07-30 22:19:13,527
2025-07-30 22:19:13,553
2025-07-30 22:19:13,517
2025-07-30 22:19:13,525
2025-07-30 22:19:13,559
2025-07-30 22:19:13,528
2025-07-30 22:19:13,519
2025-07-30 22:19:13,558
2025-07-30 22:19:13,538
2025-07-30 22:19:13,515
2025-07-30 22:19:13,552
2025-07-30 22:19:13,548
2025-07-30 22:19:13,516
2025-07-30 22:19:13,547
2025-07-30 22:19:13,553
2025-07-30 22:19:13,517
2025-07-30 22:19:13,536
2025-07-30 22:19:13,559
2025-07-30 22:19:13,522
2025-07-30 22:19:13,528
2025-07-30 22:19:13,562
2025-07-30 22:19:13,530
2025-07-30 22:19:13,518
2025-07-30 22:19:13,557
2025-07-30 22:19:13,538
2025-07-30 22:19:13,512
2025-07-30 22:19:13,551
2025-07-30 22:19:13,546
2025-07-30 22:19:13,512
2025-07-30 22:19:13,542
2025-07-30 22:19:13,555
2025-07-30 22:19:13,517
2025-07-30 22:19:13,536
2025-07-30 22:19:13,557
2025-07-30 22:19:13,522
2025-07-30 22:19:13,525
2025-07-30 22:19:13,560
2025-07-30 22:19:13,529
2025-07-30 22:19:13,517
2025-07-30 22:19:13,556
2025-07-30 22:19:13,540
2025-07-30 22:19:13,513
2025-07-30 22:19:13,550
2025-07-30 22:19:13,547
2025-07-30 22:19:13,511
2025-07-30 22:19:13,541
2025-07-30 22:19:13,553
2025-07-30 22:19:13,515
2025-07-30 22:19:13,530
2025-07-30 22:19:13,555
2025-07-30 22:19:14,519
2025-07-30 22:19:14,519
2025-07-30 22:19:14,551
2025-07-30 22:19:14,524
2025-07-30 22:19:14,511
2025-07-30 22:19:14,549
2025-07-30 22:19:14,533
2025-07-30 22:19:14,506
2025-07-30 22:19:14,543
2025-07-30 22:19:14,544
2025-07-30 22:19:14,512
2025-07-30 22:19:14,542
2025-07-30 22:19:14,556
2025-07-30 22:19:14,516
2025-07-30 22:19:14,527
2025-07-30 22:19:14,552
2025-07-30 22:19:14,515
2025-07-30 22:19:14,514
2025-07-30 22:19:14,549
2025-07-30 22:19:14,525
2025-07-30 22:19:14,508
2025-07-30 22:19:14,547
2025-07-30 22:19:14,534
2025-07-30 22:19:14,509
2025-07-30 22:19:14,545
2025-07-30 22:19:14,545
2025-07-30 22:19:14,509
2025-07-30 22:19:14,536
2025-07-30 22:19:14,551
2025-07-30 22:19:14,512
2025-07-30 22:19:14,526
2025-07-30 22:19:14,554
2025-07-30 22:19:14,520
2025-07-30 22:19:14,518
2025-07-30 22:19:14,556
2025-07-30 22:19:14,533
2025-07-30 22:19:14,514
2025-07-30 22:19:14,555
2025-07-30 22:19:14,548
2025-07-30 22:19:14,519
2025-07-30 22:19:14,554
2025-07-30 22:19:14,554
2025-07-30 22:19:14,518
2025-07-30 22:19:14,545
2025-07-30 22:19:14,562
2025-07-30 22:19:14,522
2025-07-30 22:19:14,534
2025-07-30 22:19:14,563
2025-07-30 22:19:14,528
2025-07-30 22:19:14,523
2025-07-30 22:19:14,561
2025-07-30 22:19:14,537
2025-07-30 22:19:14,516
2025-07-30 22:19:14,555
2025-07-30 22:19:14,543
2025-07-30 22:19:14,512
2025-07-30 22:19:14,543
2025-07-30 22:19:14,549
2025-07-30 22:19:14,513
2025-07-30 22:19:14,536
2025-07-30 22:19:14,553
2025-07-30 22:19:14,518
2025-07-30 22:19:14,528
2025-07-30 22:19:14,557
2025-07-30 22:19:14,525
2025-07-30 22:19:14,521
2025-07-30 22:19:14,558
2025-07-30 22:19:14,533
2025-07-30 22:19:14,512
2025-07-30 22:19:14,549
2025-07-30 22:19:14,539
2025-07-30 22:19:14,507
2025-07-30 22:19:14,541
2025-07-30 22:19:14,547
2025-07-30 22:19:14,510
2025-07-30 22:19:14,533
2025-07-30 22:19:14,553
2025-07-30 22:19:14,516
2025-07-30 22:19:14,523
2025-07-30 22:19:14,553
2025-07-30 22:19:14,524
2025-07-30 22:19:14,519
2025-07-30 22:19:14,555
2025-07-30 22:19:14,533
2025-07-30 22:19:14,510
2025-07-30 22:19:14,547
2025-07-30 22:19:14,540
2025-07-30 22:19:14,508
2025-07-30 22:19:14,541
2025-07-30 22:19:14,548
2025-07-30 22:19:14,510
2025-07-30 22:19:14,530
2025-07-30 22:19:14,552
2025-07-30 22:19:14,516
2025-07-30 22:19:14,522
2025-07-30 22:19:14,551
2025-07-30 22:19:14,524
2025-07-30 22:19:14,515
2025-07-30 22:19:14,550
2025-07-30 22:19:14,531
2025-07-30 22:19:14,509
2025-07-30 22:19:14,546
2025-07-30 22:19:14,538
2025-07-30 22:19:14,505
2025-07-30 22:19:14,538
2025-07-30 22:19:14,547
2025-07-30 22:19:14,509
2025-07-30 22:19:14,529
2025-07-30 22:19:14,550
2025-07-30 22:19:14,512
2025-07-30 22:19:14,514
2025-07-30 22:19:14,547
2025-07-30 22:19:14,516
2025-07-30 22:19:14,506
2025-07-30 22:19:14,542
2025-07-30 22:19:14,525
2025-07-30 22:19:14,499
2025-07-30 22:19:14,536
2025-07-30 22:19:14,529
2025-07-30 22:19:14,497
2025-07-30 22:19:14,528
2025-07-30 22:19:14,538
2025-07-30 22:19:14,499
2025-07-30 22:19:14,520
2025-07-30 22:19:14,545
2025-07-30 22:19:14,507
2025-07-30 22:19:14,510
2025-07-30 22:19:14,544
2025-07-30 22:19:14,517
2025-07-30 22:19:14,505
2025-07-30 22:19:14,543
2025-07-30 22:19:14,527
2025-07-30 22:19:14,504
2025-07-30 22:19:14,540
2025-07-30 22:19:14,540
2025-07-30 22:19:14,507
2025-07-30 22:19:14,536
2025-07-30 22:19:14,546
2025-07-30 22:19:14,511
2025-07-30 22:19:14,530
2025-07-30 22:19:14,552
2025-07-30 22:19:14,516
2025-07-30 22:19:14,517
2025-07-30 22:19:14,551
2025-07-30 22:19:14,523
2025-07-30 22:19:14,510
2025-07-30 22:19:14,548
2025-07-30 22:19:14,533
2025-07-30 22:19:14,508
2025-07-30 22:19:14,543
2025-07-30 22:19:14,541
2025-07-30 22:19:14,506
2025-07-30 22:19:14,532
2025-07-30 22:19:14,547
2025-07-30 22:19:14,510
2025-07-30 22:19:14,523
2025-07-30 22:19:14,546
2025-07-30 22:19:14,513
2025-07-30 22:19:14,515
2025-07-30 22:19:14,548
2025-07-30 22:19:14,521
2025-07-30 22:19:14,506
2025-07-30 22:19:14,542
2025-07-30 22:19:14,527
2025-07-30 22:19:14,500
2025-07-30 22:19:14,535
2025-07-30 22:19:14,535
2025-07-30 22:19:14,500
2025-07-30 22:19:14,526
2025-07-30 22:19:14,541
2025-07-30 22:19:14,506
2025-07-30 22:19:14,519
2025-07-30 22:19:14,544
2025-07-30 22:19:14,512
2025-07-30 22:19:14,510
2025-07-30 22:19:14,543
2025-07-30 22:19:14,519
2025-07-30 22:19:14,504
2025-07-30 22:19:14,543
2025-07-30 22:19:14,528
2025-07-30 22:19:14,498
2025-07-30 22:19:14,535
2025-07-30 22:19:14,536
2025-07-30 22:19:14,500
2025-07-30 22:19:14,527
2025-07-30 22:19:14,543
2025-07-30 22:19:14,506
2025-07-30 22:19:14,518
2025-07-30 22:19:14,546
2025-07-30 22:19:14,512
2025-07-30 22:19:14,509
2025-07-30 22:19:14,543
2025-07-30 22:19:14,519
2025-07-30 22:19:14,502
2025-07-30 22:19:15,540
2025-07-30 22:19:15,526
2025-07-30 22:19:15,499
2025-07-30 22:19:15,533
2025-07-30 22:19:15,537
2025-07-30 22:19:15,501
2025-07-30 22:19:15,529
2025-07-30 22:19:15,548
2025-07-30 22:19:15,509
2025-07-30 22:19:15,520
2025-07-30 22:19:15,546
2025-07-30 22:19:15,513
2025-07-30 22:19:15,507
2025-07-30 22:19:15,543
2025-07-30 22:19:15,520
2025-07-30 22:19:15,504
2025-07-30 22:19:15,539
2025-07-30 22:19:15,530
2025-07-30 22:19:15,502
2025-07-30 22:19:15,534
2025-07-30 22:19:15,535
2025-07-30 22:19:15,501
2025-07-30 22:19:15,524
2025-07-30 22:19:15,542
2025-07-30 22:19:15,505
2025-07-30 22:19:15,514
2025-07-30 22:19:15,543
2025-07-30 22:19:15,512
2025-07-30 22:19:15,506
2025-07-30 22:19:15,541
2025-07-30 22:19:15,518
2025-07-30 22:19:15,498
2025-07-30 22:19:15,534
2025-07-30 22:19:15,526
2025-07-30 22:19:15,496
2025-07-30 22:19:15,527
2025-07-30 22:19:15,534
2025-07-30 22:19:15,499
2025-07-30 22:19:15,519
2025-07-30 22:19:15,536
2025-07-30 22:19:15,503
2025-07-30 22:19:15,510
2025-07-30 22:19:15,540
2025-07-30 22:19:15,509
2025-07-30 22:19:15,501
2025-07-30 22:19:15,538
2025-07-30 22:19:15,519
2025-07-30 22:19:15,497
2025-07-30 22:19:15,531
2025-07-30 22:19:15,524
2025-07-30 22:19:15,492
2025-07-30 22:19:15,522
2025-07-30 22:19:15,531
2025-07-30 22:19:15,495
2025-07-30 22:19:15,513
2025-07-30 22:19:15,533
2025-07-30 22:19:15,498
2025-07-30 22:19:15,503
2025-07-30 22:19:15,533
2025-07-30 22:19:15,505
2025-07-30 22:19:15,498
2025-07-30 22:19:15,536
2025-07-30 22:19:15,517
2025-07-30 22:19:15,494
2025-07-30 22:19:15,530
2025-07-30 22:19:15,525
2025-07-30 22:19:15,491
2025-07-30 22:19:15,520
2025-07-30 22:19:15,529
2025-07-30 22:19:15,494
2025-07-30 22:19:15,512
2025-07-30 22:19:15,535
2025-07-30 22:19:15,499
2025-07-30 22:19:15,503
2025-07-30 22:19:15,534
2025-07-30 22:19:15,507
2025-07-30 22:19:15,496
2025-07-30 22:19:15,533
2025-07-30 22:19:15,513
2025-07-30 22:19:15,492
2025-07-30 22:19:15,528
2025-07-30 22:19:15,524
2025-07-30 22:19:15,491
2025-07-30 22:19:15,520
2025-07-30 22:19:15,530
2025-07-30 22:19:15,494
2025-07-30 22:19:15,512
2025-07-30 22:19:15,535
2025-07-30 22:19:15,500
2025-07-30 22:19:15,502
2025-07-30 22:19:15,536
2025-07-30 22:19:15,508
2025-07-30 22:19:15,496
2025-07-30 22:19:15,532
2025-07-30 22:19:15,519
2025-07-30 22:19:15,494
2025-07-30 22:19:15,530
2025-07-30 22:19:15,527
2025-07-30 22:19:15,496
2025-07-30 22:19:15,524
2025-07-30 22:19:15,536
2025-07-30 22:19:15,497
2025-07-30 22:19:15,512
2025-07-30 22:19:15,536
2025-07-30 22:19:15,502
2025-07-30 22:19:15,503
2025-07-30 22:19:15,537
2025-07-30 22:19:15,512
2025-07-30 22:19:15,497
2025-07-30 22:19:15,533
2025-07-30 22:19:15,520
2025-07-30 22:19:15,492
2025-07-30 22:19:15,524
2025-07-30 22:19:15,525
2025-07-30 22:19:15,492
2025-07-30 22:19:15,518
2025-07-30 22:19:15,530
2025-07-30 22:19:15,495
2025-07-30 22:19:15,508
2025-07-30 22:19:15,533
2025-07-30 22:19:15,500
2025-07-30 22:19:15,498
2025-07-30 22:19:15,534
2025-07-30 22:19:15,509
2025-07-30 22:19:15,492
2025-07-30 22:19:15,530
2025-07-30 22:19:15,517
2025-07-30 22:19:15,490
2025-07-30 22:19:15,524
2025-07-30 22:19:15,527
2025-07-30 22:19:15,490
2025-07-30 22:19:15,514
2025-07-30 22:19:15,530
2025-07-30 22:19:15,494
2025-07-30 22:19:15,507
2025-07-30 22:19:15,534
2025-07-30 22:19:15,501
2025-07-30 22:19:15,498
2025-07-30 22:19:15,535
2025-07-30 22:19:15,510
2025-07-30 22:19:15,491
2025-07-30 22:19:15,530
2025-07-30 22:19:15,518
2025-07-30 22:19:15,487
2025-07-30 22:19:15,522
2025-07-30 22:19:15,526
2025-07-30 22:19:15,490
2025-07-30 22:19:15,514
2025-07-30 22:19:15,531
2025-07-30 22:19:15,494
2025-07-30 22:19:15,505
2025-07-30 22:19:15,532
2025-07-30 22:19:15,502
2025-07-30 22:19:15,499
2025-07-30 22:19:15,533
2025-07-30 22:19:15,509
2025-07-30 22:19:15,493
2025-07-30 22:19:15,530
2025-07-30 22:19:15,519
2025-07-30 22:19:15,489
2025-07-30 22:19:15,523
2025-07-30 22:19:15,528
2025-07-30 22:19:15,492
2025-07-30 22:19:15,514
2025-07-30 22:19:15,531
2025-07-30 22:19:15,495
2025-07-30 22:19:15,506
2025-07-30 22:19:15,536
2025-07-30 22:19:15,504
2025-07-30 22:19:15,498
2025-07-30 22:19:15,531
2025-07-30 22:19:15,511
2025-07-30 22:19:15,492
2025-07-30 22:19:15,529
2025-07-30 22:19:15,518
2025-07-30 22:19:15,489
2025-07-30 22:19:15,522
2025-07-30 22:19:15,528
2025-07-30 22:19:15,491
2025-07-30 22:19:15,511
2025-07-30 22:19:15,530
2025-07-30 22:19:15,495
2025-07-30 22:19:15,503
2025-07-30 22:19:15,533
2025-07-30 22:19:15,503
2025-07-30 22:19:15,497
2025-07-30 22:19:15,533
2025-07-30 22:19:15,514
2025-07-30 22:19:15,492
2025-07-30 22:19:15,527
2025-07-30 22:19:16,522
2025-07-30 22:19:16,494
2025-07-30 22:19:16,523
2025-07-30 22:19:16,530
2025-07-30 22:19:16,495
2025-07-30 22:19:16,514
2025-07-30 22:19:16,534
2025-07-30 22:19:16,499
2025-07-30 22:19:16,504
2025-07-30 22:19:16,534
2025-07-30 22:19:16,505
2025-07-30 22:19:16,496
2025-07-30 22:19:16,533
2025-07-30 22:19:16,514
2025-07-30 22:19:16,491
2025-07-30 22:19:16,527
2025-07-30 22:19:16,522
2025-07-30 22:19:16,489
2025-07-30 22:19:16,517
2025-07-30 22:19:16,526
2025-07-30 22:19:16,494
2025-07-30 22:19:16,513
2025-07-30 22:19:16,533
2025-07-30 22:19:16,499
2025-07-30 22:19:16,505
2025-07-30 22:19:16,537
2025-07-30 22:19:16,509
2025-07-30 22:19:16,499
2025-07-30 22:19:16,536
2025-07-30 22:19:16,517
2025-07-30 22:19:16,492
2025-07-30 22:19:16,528
2025-07-30 22:19:16,524
2025-07-30 22:19:16,492
2025-07-30 22:19:16,520
2025-07-30 22:19:16,532
2025-07-30 22:19:16,493
2025-07-30 22:19:16,510
2025-07-30 22:19:16,533
2025-07-30 22:19:16,499
2025-07-30 22:19:16,504
2025-07-30 22:19:16,536
2025-07-30 22:19:16,506
2025-07-30 22:19:16,494
2025-07-30 22:19:16,533
2025-07-30 22:19:16,516
2025-07-30 22:19:16,490
2025-07-30 22:19:16,526
2025-07-30 22:19:16,523
2025-07-30 22:19:16,489
2025-07-30 22:19:16,519
2025-07-30 22:19:16,530
2025-07-30 22:19:16,493
2025-07-30 22:19:16,508
2025-07-30 22:19:16,534
2025-07-30 22:19:16,499
2025-07-30 22:19:16,500
2025-07-30 22:19:16,531
2025-07-30 22:19:16,507
2025-07-30 22:19:16,496
2025-07-30 22:19:16,534
2025-07-30 22:19:16,517
2025-07-30 22:19:16,493
2025-07-30 22:19:16,527
2025-07-30 22:19:16,525
2025-07-30 22:19:16,491
2025-07-30 22:19:16,516
2025-07-30 22:19:16,530
2025-07-30 22:19:16,495
2025-07-30 22:19:16,510
2025-07-30 22:19:16,536
2025-07-30 22:19:16,503
2025-07-30 22:19:16,500
2025-07-30 22:19:16,535
2025-07-30 22:19:16,510
2025-07-30 22:19:16,495
2025-07-30 22:19:16,530
2025-07-30 22:19:16,518
2025-07-30 22:19:16,493
2025-07-30 22:19:16,527
2025-07-30 22:19:16,527
2025-07-30 22:19:16,495
2025-07-30 22:19:16,521
2025-07-30 22:19:16,538
2025-07-30 22:19:16,502
2025-07-30 22:19:16,512
2025-07-30 22:19:16,539
2025-07-30 22:19:16,505
2025-07-30 22:19:16,503
2025-07-30 22:19:16,538
2025-07-30 22:19:16,514
2025-07-30 22:19:16,497
2025-07-30 22:19:16,534
2025-07-30 22:19:16,524
2025-07-30 22:19:16,495
2025-07-30 22:19:16,528
2025-07-30 22:19:16,529
2025-07-30 22:19:16,497
2025-07-30 22:19:16,523
2025-07-30 22:19:16,537
2025-07-30 22:19:16,500
2025-07-30 22:19:16,511
2025-07-30 22:19:16,540
2025-07-30 22:19:16,506
2025-07-30 22:19:16,504
2025-07-30 22:19:16,540
2025-07-30 22:19:16,517
2025-07-30 22:19:16,498
2025-07-30 22:19:16,537
2025-07-30 22:19:16,527
2025-07-30 22:19:16,497
2025-07-30 22:19:16,528
2025-07-30 22:19:16,533
2025-07-30 22:19:16,497
2025-07-30 22:19:16,520
2025-07-30 22:19:16,537
2025-07-30 22:19:16,504
2025-07-30 22:19:16,514
2025-07-30 22:19:16,541
2025-07-30 22:19:16,508
2025-07-30 22:19:16,504
2025-07-30 22:19:16,540
2025-07-30 22:19:16,517
2025-07-30 22:19:16,497
2025-07-30 22:19:16,534
2025-07-30 22:19:16,523
2025-07-30 22:19:16,494
2025-07-30 22:19:16,527
2025-07-30 22:19:16,532
2025-07-30 22:19:16,495
2025-07-30 22:19:16,515
2025-07-30 22:19:16,536
2025-07-30 22:19:16,500
2025-07-30 22:19:16,509
2025-07-30 22:19:16,535
2025-07-30 22:19:16,505
2025-07-30 22:19:16,499
2025-07-30 22:19:16,535
2025-07-30 22:19:16,512
2025-07-30 22:19:16,491
2025-07-30 22:19:16,528
2025-07-30 22:19:16,521
2025-07-30 22:19:16,490
2025-07-30 22:19:16,521
2025-07-30 22:19:16,527
2025-07-30 22:19:16,489
2025-07-30 22:19:16,510
2025-07-30 22:19:16,530
2025-07-30 22:19:16,494
2025-07-30 22:19:16,500
2025-07-30 22:19:16,530
2025-07-30 22:19:16,502
2025-07-30 22:19:16,493
2025-07-30 22:19:16,527
2025-07-30 22:19:16,508
2025-07-30 22:19:16,489
2025-07-30 22:19:16,526
2025-07-30 22:19:16,519
2025-07-30 22:19:16,487
2025-07-30 22:19:16,517
2025-07-30 22:19:16,524
2025-07-30 22:19:16,487
2025-07-30 22:19:16,506
2025-07-30 22:19:16,530
2025-07-30 22:19:16,493
2025-07-30 22:19:16,498
2025-07-30 22:19:16,532
2025-07-30 22:19:16,501
2025-07-30 22:19:16,490
2025-07-30 22:19:16,527
2025-07-30 22:19:16,511
2025-07-30 22:19:16,486
2025-07-30 22:19:16,521
2025-07-30 22:19:16,516
2025-07-30 22:19:16,483
2025-07-30 22:19:16,512
2025-07-30 22:19:16,519
2025-07-30 22:19:16,482
2025-07-30 22:19:16,502
2025-07-30 22:19:16,525
2025-07-30 22:19:16,489
2025-07-30 22:19:16,492
2025-07-30 22:19:16,525
2025-07-30 22:19:16,496
2025-07-30 22:19:16,484
2025-07-30 22:19:16,522
2025-07-30 22:19:16,505
2025-07-30 22:19:16,481
2025-07-30 22:19:16,515
2025-07-30 22:19:16,512
2025-07-30 22:19:16,479
2025-07-30 22:19:16,507
2025-07-30 22:19:16,516
2025-07-30 22:19:16,478
2025-07-30 22:19:17,495
2025-07-30 22:19:17,519
2025-07-30 22:19:17,484
2025-07-30 22:19:17,484
2025-07-30 22:19:17,518
2025-07-30 22:19:17,492
2025-07-30 22:19:17,478
2025-07-30 22:19:17,515
2025-07-30 22:19:17,499
2025-07-30 22:19:17,472
2025-07-30 22:19:17,508
2025-07-30 22:19:17,506
2025-07-30 22:19:17,471
2025-07-30 22:19:17,497
2025-07-30 22:19:17,511
2025-07-30 22:19:17,474
2025-07-30 22:19:17,488
2025-07-30 22:19:17,511
2025-07-30 22:19:17,479
2025-07-30 22:19:17,480
2025-07-30 22:19:17,513
2025-07-30 22:19:17,486
2025-07-30 22:19:17,472
2025-07-30 22:19:17,509
2025-07-30 22:19:17,496
2025-07-30 22:19:17,468
2025-07-30 22:19:17,503
2025-07-30 22:19:17,503
2025-07-30 22:19:17,467
2025-07-30 22:19:17,493
2025-07-30 22:19:17,508
2025-07-30 22:19:17,471
2025-07-30 22:19:17,482
2025-07-30 22:19:17,509
2025-07-30 22:19:17,477
2025-07-30 22:19:17,475
2025-07-30 22:19:17,508
2025-07-30 22:19:17,485
2025-07-30 22:19:17,467
2025-07-30 22:19:17,504
2025-07-30 22:19:17,491
2025-07-30 22:19:17,464
2025-07-30 22:19:17,498
2025-07-30 22:19:17,498
2025-07-30 22:19:17,462
2025-07-30 22:19:17,485
2025-07-30 22:19:17,502
2025-07-30 22:19:17,464
2025-07-30 22:19:17,475
2025-07-30 22:19:17,504
2025-07-30 22:19:17,470
2025-07-30 22:19:17,465
2025-07-30 22:19:17,501
2025-07-30 22:19:17,480
2025-07-30 22:19:17,461
2025-07-30 22:19:17,499
2025-07-30 22:19:17,489
2025-07-30 22:19:17,460
2025-07-30 22:19:17,495
2025-07-30 22:19:17,499
2025-07-30 22:19:17,463
2025-07-30 22:19:17,488
2025-07-30 22:19:17,507
2025-07-30 22:19:17,469
2025-07-30 22:19:17,479
2025-07-30 22:19:17,508
2025-07-30 22:19:17,474
2025-07-30 22:19:17,467
2025-07-30 22:19:17,507
2025-07-30 22:19:17,485
2025-07-30 22:19:17,465
2025-07-30 22:19:17,503
2025-07-30 22:19:17,495
2025-07-30 22:19:17,464
2025-07-30 22:19:17,497
2025-07-30 22:19:17,500
2025-07-30 22:19:17,465
2025-07-30 22:19:17,488
2025-07-30 22:19:17,507
2025-07-30 22:19:17,471
2025-07-30 22:19:17,480
2025-07-30 22:19:17,511
2025-07-30 22:19:17,478
2025-07-30 22:19:17,471
2025-07-30 22:19:17,507
2025-07-30 22:19:17,486
2025-07-30 22:19:17,465
2025-07-30 22:19:17,504
2025-07-30 22:19:17,496
2025-07-30 22:19:17,465
2025-07-30 22:19:17,496
2025-07-30 22:19:17,504
2025-07-30 22:19:17,467
2025-07-30 22:19:17,488
2025-07-30 22:19:17,507
2025-07-30 22:19:17,472
2025-07-30 22:19:17,479
2025-07-30 22:19:17,509
2025-07-30 22:19:17,479
2025-07-30 22:19:17,473
2025-07-30 22:19:17,511
2025-07-30 22:19:17,490
2025-07-30 22:19:17,467
2025-07-30 22:19:17,503
2025-07-30 22:19:17,498
2025-07-30 22:19:17,465
2025-07-30 22:19:17,496
2025-07-30 22:19:17,506
2025-07-30 22:19:17,469
2025-07-30 22:19:17,487
2025-07-30 22:19:17,510
2025-07-30 22:19:17,474
2025-07-30 22:19:17,479
2025-07-30 22:19:17,510
2025-07-30 22:19:17,482
2025-07-30 22:19:17,474
2025-07-30 22:19:17,513
2025-07-30 22:19:17,494
2025-07-30 22:19:17,472
2025-07-30 22:19:17,509
2025-07-30 22:19:17,504
2025-07-30 22:19:17,471
2025-07-30 22:19:17,501
2025-07-30 22:19:17,511
2025-07-30 22:19:17,473
2025-07-30 22:19:17,492
2025-07-30 22:19:17,517
2025-07-30 22:19:17,481
2025-07-30 22:19:17,484
2025-07-30 22:19:17,516
2025-07-30 22:19:17,489
2025-07-30 22:19:17,478
2025-07-30 22:19:17,516
2025-07-30 22:19:17,501
2025-07-30 22:19:17,479
2025-07-30 22:19:17,516
2025-07-30 22:19:17,510
2025-07-30 22:19:17,476
2025-07-30 22:19:17,505
2025-07-30 22:19:17,516
2025-07-30 22:19:17,476
2025-07-30 22:19:17,494
2025-07-30 22:19:17,521
2025-07-30 22:19:17,485
2025-07-30 22:19:17,488
2025-07-30 22:19:17,523
2025-07-30 22:19:17,495
2025-07-30 22:19:17,482
2025-07-30 22:19:17,519
2025-07-30 22:19:17,504
2025-07-30 22:19:17,478
2025-07-30 22:19:17,513
2025-07-30 22:19:17,512
2025-07-30 22:19:17,481
2025-07-30 22:19:17,510
2025-07-30 22:19:17,522
2025-07-30 22:19:17,485
2025-07-30 22:19:17,501
2025-07-30 22:19:17,528
2025-07-30 22:19:17,492
2025-07-30 22:19:17,492
2025-07-30 22:19:17,527
2025-07-30 22:19:17,499
2025-07-30 22:19:17,485
2025-07-30 22:19:17,526
2025-07-30 22:19:17,511
2025-07-30 22:19:17,484
2025-07-30 22:19:17,518
2025-07-30 22:19:17,518
2025-07-30 22:19:17,483
2025-07-30 22:19:17,511
2025-07-30 22:19:17,524
2025-07-30 22:19:17,488
2025-07-30 22:19:17,503
2025-07-30 22:19:17,531
2025-07-30 22:19:17,498
2025-07-30 22:19:17,497
2025-07-30 22:19:17,532
2025-07-30 22:19:17,506
2025-07-30 22:19:17,489
2025-07-30 22:19:17,527
2025-07-30 22:19:17,514
2025-07-30 22:19:17,485
2025-07-30 22:19:17,521
2025-07-30 22:19:17,524
2025-07-30 22:19:17,489
2025-07-30 22:19:17,513
2025-07-30 22:19:17,530
2025-07-30 22:19:17,493
2025-07-30 22:19:17,505
2025-07-30 22:19:18,533
2025-07-30 22:19:18,500
2025-07-30 22:19:18,498
2025-07-30 22:19:18,535
2025-07-30 22:19:18,510
2025-07-30 22:19:18,494
2025-07-30 22:19:18,534
2025-07-30 22:19:18,523
2025-07-30 22:19:18,492
2025-07-30 22:19:18,527
2025-07-30 22:19:18,529
2025-07-30 22:19:18,492
2025-07-30 22:19:18,518
2025-07-30 22:19:18,536
2025-07-30 22:19:18,497
2025-07-30 22:19:18,507
2025-07-30 22:19:18,538
2025-07-30 22:19:18,505
2025-07-30 22:19:18,500
2025-07-30 22:19:18,534
2025-07-30 22:19:18,512
2025-07-30 22:19:18,494
2025-07-30 22:19:18,531
2025-07-30 22:19:18,521
2025-07-30 22:19:18,490
2025-07-30 22:19:18,525
2025-07-30 22:19:18,530
2025-07-30 22:19:18,493
2025-07-30 22:19:18,515
2025-07-30 22:19:18,534
2025-07-30 22:19:18,495
2025-07-30 22:19:18,504
2025-07-30 22:19:18,536
2025-07-30 22:19:18,503
2025-07-30 22:19:18,497
2025-07-30 22:19:18,534
2025-07-30 22:19:18,512
2025-07-30 22:19:18,492
2025-07-30 22:19:18,530
2025-07-30 22:19:18,520
2025-07-30 22:19:18,491
2025-07-30 22:19:18,525
2025-07-30 22:19:18,528
2025-07-30 22:19:18,492
2025-07-30 22:19:18,516
2025-07-30 22:19:18,534
2025-07-30 22:19:18,495
2025-07-30 22:19:18,503
2025-07-30 22:19:18,534
2025-07-30 22:19:18,502
2025-07-30 22:19:18,495
2025-07-30 22:19:18,533
2025-07-30 22:19:18,512
2025-07-30 22:19:18,490
2025-07-30 22:19:18,526
2025-07-30 22:19:18,521
2025-07-30 22:19:18,488
2025-07-30 22:19:18,519
2025-07-30 22:19:18,525
2025-07-30 22:19:18,490
2025-07-30 22:19:18,510
2025-07-30 22:19:18,533
2025-07-30 22:19:18,497
2025-07-30 22:19:18,502
2025-07-30 22:19:18,534
2025-07-30 22:19:18,503
2025-07-30 22:19:18,493
2025-07-30 22:19:18,532
2025-07-30 22:19:18,513
2025-07-30 22:19:18,489
2025-07-30 22:19:18,526
2025-07-30 22:19:18,521
2025-07-30 22:19:18,488
2025-07-30 22:19:18,517
2025-07-30 22:19:18,530
2025-07-30 22:19:18,493
2025-07-30 22:19:18,511
2025-07-30 22:19:18,532
2025-07-30 22:19:18,497
2025-07-30 22:19:18,501
2025-07-30 22:19:18,533
2025-07-30 22:19:18,503
2025-07-30 22:19:18,493
2025-07-30 22:19:18,533
2025-07-30 22:19:18,513
2025-07-30 22:19:18,487
2025-07-30 22:19:18,524
2025-07-30 22:19:18,521
2025-07-30 22:19:18,486
2025-07-30 22:19:18,516
2025-07-30 22:19:18,528
2025-07-30 22:19:18,491
2025-07-30 22:19:18,507
2025-07-30 22:19:18,533
2025-07-30 22:19:18,498
2025-07-30 22:19:18,499
2025-07-30 22:19:18,530
2025-07-30 22:19:18,504
2025-07-30 22:19:18,493
2025-07-30 22:19:18,531
2025-07-30 22:19:18,514
2025-07-30 22:19:18,488
2025-07-30 22:19:18,525
2025-07-30 22:19:18,523
2025-07-30 22:19:18,489
2025-07-30 22:19:18,518
2025-07-30 22:19:18,530
2025-07-30 22:19:18,490
2025-07-30 22:19:18,506
2025-07-30 22:19:18,531
2025-07-30 22:19:18,495
2025-07-30 22:19:18,495
2025-07-30 22:19:18,529
2025-07-30 22:19:18,505
2025-07-30 22:19:18,492
2025-07-30 22:19:18,530
2025-07-30 22:19:18,514
2025-07-30 22:19:18,489
2025-07-30 22:19:18,525
2025-07-30 22:19:18,524
2025-07-30 22:19:18,490
2025-07-30 22:19:18,519
2025-07-30 22:19:18,532
2025-07-30 22:19:18,493
2025-07-30 22:19:18,509
2025-07-30 22:19:18,536
2025-07-30 22:19:18,501
2025-07-30 22:19:18,500
2025-07-30 22:19:18,535
2025-07-30 22:19:18,510
2025-07-30 22:19:18,494
2025-07-30 22:19:18,530
2025-07-30 22:19:18,517
2025-07-30 22:19:18,489
2025-07-30 22:19:18,522
2025-07-30 22:19:18,519
2025-07-30 22:19:18,486
2025-07-30 22:19:18,512
2025-07-30 22:19:18,527
2025-07-30 22:19:18,491
2025-07-30 22:19:18,504
2025-07-30 22:19:18,530
2025-07-30 22:19:18,496
2025-07-30 22:19:18,495
2025-07-30 22:19:18,531
2025-07-30 22:19:18,505
2025-07-30 22:19:18,488
2025-07-30 22:19:18,527
2025-07-30 22:19:18,515
2025-07-30 22:19:18,487
2025-07-30 22:19:18,521
2025-07-30 22:19:18,525
2025-07-30 22:19:18,489
2025-07-30 22:19:18,514
2025-07-30 22:19:18,528
2025-07-30 22:19:18,494
2025-07-30 22:19:18,506
2025-07-30 22:19:18,534
2025-07-30 22:19:18,499
2025-07-30 22:19:18,494
2025-07-30 22:19:18,532
2025-07-30 22:19:18,508
2025-07-30 22:19:18,489
2025-07-30 22:19:18,526
2025-07-30 22:19:18,515
2025-07-30 22:19:18,485
2025-07-30 22:19:18,520
2025-07-30 22:19:18,525
2025-07-30 22:19:18,488
2025-07-30 22:19:18,511
2025-07-30 22:19:18,531
2025-07-30 22:19:18,495
2025-07-30 22:19:18,505
2025-07-30 22:19:18,532
2025-07-30 22:19:18,500
2025-07-30 22:19:18,495
2025-07-30 22:19:18,531
2025-07-30 22:19:18,508
2025-07-30 22:19:18,489
2025-07-30 22:19:18,527
2025-07-30 22:19:18,518
2025-07-30 22:19:18,488
2025-07-30 22:19:18,521
2025-07-30 22:19:18,527
2025-07-30 22:19:18,489
2025-07-30 22:19:18,511
2025-07-30 22:19:18,531
2025-07-30 22:19:18,495
2025-07-30 22:19:18,503
2025-07-30 22:19:18,533
2025-07-30 22:19:18,502
2025-07-30 22:19:18,495
2025-07-30 22:19:18,530
2025-07-30 22:19:18,509
2025-07-30 22:19:19,490
2025-07-30 22:19:19,530
2025-07-30 22:19:19,520
2025-07-30 22:19:19,488
2025-07-30 22:19:19,518
2025-07-30 22:19:19,525
2025-07-30 22:19:19,489
2025-07-30 22:19:19,510
2025-07-30 22:19:19,530
2025-07-30 22:19:19,492
2025-07-30 22:19:19,499
2025-07-30 22:19:19,533
2025-07-30 22:19:19,504
2025-07-30 22:19:19,494
2025-07-30 22:19:19,529
2025-07-30 22:19:19,512
2025-07-30 22:19:19,490
2025-07-30 22:19:19,526
2025-07-30 22:19:19,519
2025-07-30 22:19:19,489
2025-07-30 22:19:19,519
2025-07-30 22:19:19,526
2025-07-30 22:19:19,491
2025-07-30 22:19:19,511
2025-07-30 22:19:19,533
2025-07-30 22:19:19,497
2025-07-30 22:19:19,500
2025-07-30 22:19:19,533
2025-07-30 22:19:19,503
2025-07-30 22:19:19,491
2025-07-30 22:19:19,529
2025-07-30 22:19:19,512
2025-07-30 22:19:19,488
2025-07-30 22:19:19,521
2025-07-30 22:19:19,519
2025-07-30 22:19:19,487
2025-07-30 22:19:19,516
2025-07-30 22:19:19,527
2025-07-30 22:19:19,493
2025-07-30 22:19:19,511
2025-07-30 22:19:19,536
2025-07-30 22:19:19,500
2025-07-30 22:19:19,503
2025-07-30 22:19:19,536
2025-07-30 22:19:19,506
2025-07-30 22:19:19,494
2025-07-30 22:19:19,531
2025-07-30 22:19:19,515
2025-07-30 22:19:19,488
2025-07-30 22:19:19,524
2025-07-30 22:19:19,522
2025-07-30 22:19:19,488
2025-07-30 22:19:19,516
2025-07-30 22:19:19,529
2025-07-30 22:19:19,492
2025-07-30 22:19:19,509
2025-07-30 22:19:19,532
2025-07-30 22:19:19,500
2025-07-30 22:19:19,502
2025-07-30 22:19:19,536
2025-07-30 22:19:19,507
2025-07-30 22:19:19,496
2025-07-30 22:19:19,535
2025-07-30 22:19:19,519
2025-07-30 22:19:19,493
2025-07-30 22:19:19,528
2025-07-30 22:19:19,527
2025-07-30 22:19:19,493
2025-07-30 22:19:19,519
2025-07-30 22:19:19,532
2025-07-30 22:19:19,496
2025-07-30 22:19:19,509
2025-07-30 22:19:19,535
2025-07-30 22:19:19,502
2025-07-30 22:19:19,501
2025-07-30 22:19:19,534
2025-07-30 22:19:19,510
2025-07-30 22:19:19,498
2025-07-30 22:19:19,535
2025-07-30 22:19:19,521
2025-07-30 22:19:19,494
2025-07-30 22:19:19,528
2025-07-30 22:19:19,529
2025-07-30 22:19:19,494
2025-07-30 22:19:19,520
2025-07-30 22:19:19,534
2025-07-30 22:19:19,498
2025-07-30 22:19:19,511
2025-07-30 22:19:19,538
2025-07-30 22:19:19,506
2025-07-30 22:19:19,504
2025-07-30 22:19:19,538
2025-07-30 22:19:19,515
2025-07-30 22:19:19,497
2025-07-30 22:19:19,534
2025-07-30 22:19:19,522
2025-07-30 22:19:19,495
2025-07-30 22:19:19,528
2025-07-30 22:19:19,530
2025-07-30 22:19:19,495
2025-07-30 22:19:19,519
2025-07-30 22:19:19,537
2025-07-30 22:19:19,500
2025-07-30 22:19:19,511
2025-07-30 22:19:19,539
2025-07-30 22:19:19,507
2025-07-30 22:19:19,503
2025-07-30 22:19:19,538
2025-07-30 22:19:19,515
2025-07-30 22:19:19,498
2025-07-30 22:19:19,534
2025-07-30 22:19:19,523
2025-07-30 22:19:19,494
2025-07-30 22:19:19,527
2025-07-30 22:19:19,530
2025-07-30 22:19:19,495
2025-07-30 22:19:19,520
2025-07-30 22:19:19,538
2025-07-30 22:19:19,502
2025-07-30 22:19:19,512
2025-07-30 22:19:19,541
2025-07-30 22:19:19,510
2025-07-30 22:19:19,503
2025-07-30 22:19:19,540
2025-07-30 22:19:19,519
2025-07-30 22:19:19,499
2025-07-30 22:19:19,536
2025-07-30 22:19:19,527
2025-07-30 22:19:19,497
2025-07-30 22:19:19,528
2025-07-30 22:19:19,536
2025-07-30 22:19:19,500
2025-07-30 22:19:19,521
2025-07-30 22:19:19,538
2025-07-30 22:19:19,503
2025-07-30 22:19:19,512
2025-07-30 22:19:19,543
2025-07-30 22:19:19,511
2025-07-30 22:19:19,505
2025-07-30 22:19:19,541
2025-07-30 22:19:19,520
2025-07-30 22:19:19,499
2025-07-30 22:19:19,535
2025-07-30 22:19:19,528
2025-07-30 22:19:19,498
2025-07-30 22:19:19,528
2025-07-30 22:19:19,534
2025-07-30 22:19:19,498
2025-07-30 22:19:19,519
2025-07-30 22:19:19,541
2025-07-30 22:19:19,506
2025-07-30 22:19:19,514
2025-07-30 22:19:19,543
2025-07-30 22:19:19,514
2025-07-30 22:19:19,506
2025-07-30 22:19:19,543
2025-07-30 22:19:19,523
2025-07-30 22:19:19,502
2025-07-30 22:19:19,538
2025-07-30 22:19:19,532
2025-07-30 22:19:19,501
2025-07-30 22:19:19,531
2025-07-30 22:19:19,538
2025-07-30 22:19:19,503
2025-07-30 22:19:19,522
2025-07-30 22:19:19,543
2025-07-30 22:19:19,507
2025-07-30 22:19:19,511
2025-07-30 22:19:19,542
2025-07-30 22:19:19,516
2025-07-30 22:19:19,505
2025-07-30 22:19:19,539
2025-07-30 22:19:19,522
2025-07-30 22:19:19,502
2025-07-30 22:19:19,536
2025-07-30 22:19:19,532
2025-07-30 22:19:19,500
2025-07-30 22:19:19,528
2025-07-30 22:19:19,539
2025-07-30 22:19:19,502
2025-07-30 22:19:19,519
2025-07-30 22:19:19,542
2025-07-30 22:19:19,508
2025-07-30 22:19:19,509
2025-07-30 22:19:19,542
2025-07-30 22:19:19,515
2025-07-30 22:19:19,504
2025-07-30 22:19:19,541
2025-07-30 22:19:19,527
2025-07-30 22:19:19,502
2025-07-30 22:19:19,537
2025-07-30 22:19:20,532
2025-07-30 22:19:20,501
2025-07-30 22:19:20,528
2025-07-30 22:19:20,538
2025-07-30 22:19:20,501
2025-07-30 22:19:20,517
2025-07-30 22:19:20,539
2025-07-30 22:19:20,504
2025-07-30 22:19:20,504
2025-07-30 22:19:20,537
2025-07-30 22:19:20,511
2025-07-30 22:19:20,497
2025-07-30 22:19:20,534
2025-07-30 22:19:20,520
2025-07-30 22:19:20,494
2025-07-30 22:19:20,527
2025-07-30 22:19:20,527
2025-07-30 22:19:20,495
2025-07-30 22:19:20,521
2025-07-30 22:19:20,532
2025-07-30 22:19:20,498
2025-07-30 22:19:20,514
2025-07-30 22:19:20,540
2025-07-30 22:19:20,505
2025-07-30 22:19:20,505
2025-07-30 22:19:20,539
2025-07-30 22:19:20,512
2025-07-30 22:19:20,497
2025-07-30 22:19:20,534
2025-07-30 22:19:20,520
2025-07-30 22:19:20,493
2025-07-30 22:19:20,528
2025-07-30 22:19:20,529
2025-07-30 22:19:20,496
2025-07-30 22:19:20,520
2025-07-30 22:19:20,535
2025-07-30 22:19:20,500
2025-07-30 22:19:20,513
2025-07-30 22:19:20,538
2025-07-30 22:19:20,507
2025-07-30 22:19:20,505
2025-07-30 22:19:20,539
2025-07-30 22:19:20,514
2025-07-30 22:19:20,498
2025-07-30 22:19:20,536
2025-07-30 22:19:20,524
2025-07-30 22:19:20,495
2025-07-30 22:19:20,527
2025-07-30 22:19:20,529
2025-07-30 22:19:20,494
2025-07-30 22:19:20,519
2025-07-30 22:19:20,537
2025-07-30 22:19:20,501
2025-07-30 22:19:20,511
2025-07-30 22:19:20,539
2025-07-30 22:19:20,508
2025-07-30 22:19:20,503
2025-07-30 22:19:20,537
2025-07-30 22:19:20,513
2025-07-30 22:19:20,498
2025-07-30 22:19:20,536
2025-07-30 22:19:20,524
2025-07-30 22:19:20,494
2025-07-30 22:19:20,528
2025-07-30 22:19:20,533
2025-07-30 22:19:20,496
2025-07-30 22:19:20,519
2025-07-30 22:19:20,537
2025-07-30 22:19:20,501
2025-07-30 22:19:20,509
2025-07-30 22:19:20,539
2025-07-30 22:19:20,508
2025-07-30 22:19:20,502
2025-07-30 22:19:20,536
2025-07-30 22:19:20,516
2025-07-30 22:19:20,496
2025-07-30 22:19:20,532
2025-07-30 22:19:20,522
2025-07-30 22:19:20,495
2025-07-30 22:19:20,528
2025-07-30 22:19:20,532
2025-07-30 22:19:20,496
2025-07-30 22:19:20,519
2025-07-30 22:19:20,539
2025-07-30 22:19:20,501
2025-07-30 22:19:20,509
2025-07-30 22:19:20,539
2025-07-30 22:19:20,509
2025-07-30 22:19:20,501
2025-07-30 22:19:20,538
2025-07-30 22:19:20,517
2025-07-30 22:19:20,496
2025-07-30 22:19:20,531
2025-07-30 22:19:20,523
2025-07-30 22:19:20,492
2025-07-30 22:19:20,525
2025-07-30 22:19:20,531
2025-07-30 22:19:20,496
2025-07-30 22:19:20,516
2025-07-30 22:19:20,536
2025-07-30 22:19:20,498
2025-07-30 22:19:20,506
2025-07-30 22:19:20,537
2025-07-30 22:19:20,505
2025-07-30 22:19:20,497
2025-07-30 22:19:20,533
2025-07-30 22:19:20,512
2025-07-30 22:19:20,492
2025-07-30 22:19:20,528
2025-07-30 22:19:20,522
2025-07-30 22:19:20,490
2025-07-30 22:19:20,519
2025-07-30 22:19:20,530
2025-07-30 22:19:20,493
2025-07-30 22:19:20,512
2025-07-30 22:19:20,532
2025-07-30 22:19:20,499
2025-07-30 22:19:20,505
2025-07-30 22:19:20,536
2025-07-30 22:19:20,506
2025-07-30 22:19:20,496
2025-07-30 22:19:20,534
2025-07-30 22:19:20,515
2025-07-30 22:19:20,492
2025-07-30 22:19:20,527
2025-07-30 22:19:20,523
2025-07-30 22:19:20,491
2025-07-30 22:19:20,519
2025-07-30 22:19:20,531
2025-07-30 22:19:20,496
2025-07-30 22:19:20,512
2025-07-30 22:19:20,535
2025-07-30 22:19:20,501
2025-07-30 22:19:20,505
2025-07-30 22:19:20,537
2025-07-30 22:19:20,509
2025-07-30 22:19:20,497
2025-07-30 22:19:20,534
2025-07-30 22:19:20,517
2025-07-30 22:19:20,494
2025-07-30 22:19:20,528
2025-07-30 22:19:20,526
2025-07-30 22:19:20,491
2025-07-30 22:19:20,518
2025-07-30 22:19:20,530
2025-07-30 22:19:20,493
2025-07-30 22:19:20,509
2025-07-30 22:19:20,534
2025-07-30 22:19:20,500
2025-07-30 22:19:20,501
2025-07-30 22:19:20,533
2025-07-30 22:19:20,508
2025-07-30 22:19:20,496
2025-07-30 22:19:20,533
2025-07-30 22:19:20,515
2025-07-30 22:19:20,489
2025-07-30 22:19:20,525
2025-07-30 22:19:20,523
2025-07-30 22:19:20,489
2025-07-30 22:19:20,517
2025-07-30 22:19:20,532
2025-07-30 22:19:20,494
2025-07-30 22:19:20,510
2025-07-30 22:19:20,535
2025-07-30 22:19:20,499
2025-07-30 22:19:20,500
2025-07-30 22:19:20,535
2025-07-30 22:19:20,509
2025-07-30 22:19:20,494
2025-07-30 22:19:20,529
2025-07-30 22:19:20,517
2025-07-30 22:19:20,491
2025-07-30 22:19:20,526
2025-07-30 22:19:20,524
2025-07-30 22:19:20,491
2025-07-30 22:19:20,519
2025-07-30 22:19:20,532
2025-07-30 22:19:20,495
2025-07-30 22:19:20,508
2025-07-30 22:19:20,535
2025-07-30 22:19:20,502
2025-07-30 22:19:20,502
2025-07-30 22:19:20,536
2025-07-30 22:19:20,510
2025-07-30 22:19:20,494
2025-07-30 22:19:20,534
2025-07-30 22:19:20,523
2025-07-30 22:19:20,495
2025-07-30 22:19:20,528
2025-07-30 22:19:20,530
2025-07-30 22:19:20,496
2025-07-30 22:19:20,521
2025-07-30 22:19:20,536
2025-07-30 22:19:21,501
2025-07-30 22:19:21,513
2025-07-30 22:19:21,539
2025-07-30 22:19:21,506
2025-07-30 22:19:21,504
2025-07-30 22:19:21,541
2025-07-30 22:19:21,518
2025-07-30 22:19:21,500
2025-07-30 22:19:21,536
2025-07-30 22:19:21,526
2025-07-30 22:19:21,496
2025-07-30 22:19:21,528
2025-07-30 22:19:21,533
2025-07-30 22:19:21,498
2025-07-30 22:19:21,520
2025-07-30 22:19:21,538
2025-07-30 22:19:21,504
2025-07-30 22:19:21,513
2025-07-30 22:19:21,540
2025-07-30 22:19:21,510
2025-07-30 22:19:21,505
2025-07-30 22:19:21,541
2025-07-30 22:19:21,519
2025-07-30 22:19:21,498
2025-07-30 22:19:21,536
2025-07-30 22:19:21,527
2025-07-30 22:19:21,497
2025-07-30 22:19:21,529
2025-07-30 22:19:21,534
2025-07-30 22:19:21,497
2025-07-30 22:19:21,520
2025-07-30 22:19:21,540
2025-07-30 22:19:21,504
2025-07-30 22:19:21,510
2025-07-30 22:19:21,538
2025-07-30 22:19:21,510
2025-07-30 22:19:21,504
2025-07-30 22:19:21,539
2025-07-30 22:19:21,518
2025-07-30 22:19:21,498
2025-07-30 22:19:21,536
2025-07-30 22:19:21,527
2025-07-30 22:19:21,496
2025-07-30 22:19:21,529
2025-07-30 22:19:21,536
2025-07-30 22:19:21,498
2025-07-30 22:19:21,518
2025-07-30 22:19:21,539
2025-07-30 22:19:21,503
2025-07-30 22:19:21,510
2025-07-30 22:19:21,542
2025-07-30 22:19:21,511
2025-07-30 22:19:21,502
2025-07-30 22:19:21,536
2025-07-30 22:19:21,518
2025-07-30 22:19:21,497
2025-07-30 22:19:21,533
2025-07-30 22:19:21,526
2025-07-30 22:19:21,496
2025-07-30 22:19:21,527
2025-07-30 22:19:21,533
2025-07-30 22:19:21,498
2025-07-30 22:19:21,519
2025-07-30 22:19:21,540
2025-07-30 22:19:21,503
2025-07-30 22:19:21,509
2025-07-30 22:19:21,540
2025-07-30 22:19:21,511
2025-07-30 22:19:21,501
2025-07-30 22:19:21,537
2025-07-30 22:19:21,518
2025-07-30 22:19:21,494
2025-07-30 22:19:21,528
2025-07-30 22:19:21,526
2025-07-30 22:19:21,496
2025-07-30 22:19:21,525
2025-07-30 22:19:21,532
2025-07-30 22:19:21,497
2025-07-30 22:19:21,515
2025-07-30 22:19:21,537
2025-07-30 22:19:21,502
2025-07-30 22:19:21,506
2025-07-30 22:19:21,538
2025-07-30 22:19:21,512
2025-07-30 22:19:21,501
2025-07-30 22:19:21,537
2025-07-30 22:19:21,520
2025-07-30 22:19:21,495
2025-07-30 22:19:21,530
2025-07-30 22:19:21,528
2025-07-30 22:19:21,494
2025-07-30 22:19:21,519
2025-07-30 22:19:21,532
2025-07-30 22:19:21,498
2025-07-30 22:19:21,515
2025-07-30 22:19:21,537
2025-07-30 22:19:21,503
2025-07-30 22:19:21,506
2025-07-30 22:19:21,539
2025-07-30 22:19:21,513
2025-07-30 22:19:21,499
2025-07-30 22:19:21,536
2025-07-30 22:19:21,522
2025-07-30 22:19:21,496
2025-07-30 22:19:21,530
2025-07-30 22:19:21,529
2025-07-30 22:19:21,495
2025-07-30 22:19:21,522
2025-07-30 22:19:21,537
2025-07-30 22:19:21,499
2025-07-30 22:19:21,512
2025-07-30 22:19:21,537
2025-07-30 22:19:21,505
2025-07-30 22:19:21,504
2025-07-30 22:19:21,538
2025-07-30 22:19:21,512
2025-07-30 22:19:21,499
2025-07-30 22:19:21,536
2025-07-30 22:19:21,521
2025-07-30 22:19:21,495
2025-07-30 22:19:21,530
2025-07-30 22:19:21,531
2025-07-30 22:19:21,497
2025-07-30 22:19:21,524
2025-07-30 22:19:21,538
2025-07-30 22:19:21,499
2025-07-30 22:19:21,512
2025-07-30 22:19:21,539
2025-07-30 22:19:21,506
2025-07-30 22:19:21,504
2025-07-30 22:19:21,536
2025-07-30 22:19:21,512
2025-07-30 22:19:21,497
2025-07-30 22:19:21,535
2025-07-30 22:19:21,521
2025-07-30 22:19:21,494
2025-07-30 22:19:21,528
2025-07-30 22:19:21,528
2025-07-30 22:19:21,494
2025-07-30 22:19:21,519
2025-07-30 22:19:21,535
2025-07-30 22:19:21,498
2025-07-30 22:19:21,509
2025-07-30 22:19:21,537
2025-07-30 22:19:21,506
2025-07-30 22:19:21,503
2025-07-30 22:19:21,537
2025-07-30 22:19:21,515
2025-07-30 22:19:21,497
2025-07-30 22:19:21,532
2025-07-30 22:19:21,523
2025-07-30 22:19:21,495
2025-07-30 22:19:21,528
2025-07-30 22:19:21,528
2025-07-30 22:19:21,496
2025-07-30 22:19:21,520
2025-07-30 22:19:21,537
2025-07-30 22:19:21,501
2025-07-30 22:19:21,511
2025-07-30 22:19:21,539
2025-07-30 22:19:21,509
2025-07-30 22:19:21,503
2025-07-30 22:19:21,538
2025-07-30 22:19:21,516
2025-07-30 22:19:21,496
2025-07-30 22:19:21,532
2025-07-30 22:19:21,522
2025-07-30 22:19:21,494
2025-07-30 22:19:21,523
2025-07-30 22:19:21,529
2025-07-30 22:19:21,496
2025-07-30 22:19:21,516
2025-07-30 22:19:21,534
2025-07-30 22:19:21,500
2025-07-30 22:19:21,509
2025-07-30 22:19:21,538
2025-07-30 22:19:21,507
2025-07-30 22:19:21,499
2025-07-30 22:19:21,535
2025-07-30 22:19:21,514
2025-07-30 22:19:21,495
2025-07-30 22:19:21,532
2025-07-30 22:19:21,525
2025-07-30 22:19:21,493
2025-07-30 22:19:21,524
2025-07-30 22:19:21,532
2025-07-30 22:19:21,497
2025-07-30 22:19:21,516
2025-07-30 22:19:21,536
2025-07-30 22:19:21,502
2025-07-30 22:19:21,508
2025-07-30 22:19:21,537
2025-07-30 22:19:21,506
2025-07-30 22:19:21,498
2025-07-30 22:19:22,534
2025-07-30 22:19:22,514
2025-07-30 22:19:22,492
2025-07-30 22:19:22,529
2025-07-30 22:19:22,523
2025-07-30 22:19:22,491
2025-07-30 22:19:22,522
2025-07-30 22:19:22,530
2025-07-30 22:19:22,494
2025-07-30 22:19:22,514
2025-07-30 22:19:22,538
2025-07-30 22:19:22,503
2025-07-30 22:19:22,508
2025-07-30 22:19:22,537
2025-07-30 22:19:22,511
2025-07-30 22:19:22,502
2025-07-30 22:19:22,538
2025-07-30 22:19:22,518
2025-07-30 22:19:22,497
2025-07-30 22:19:22,533
2025-07-30 22:19:22,527
2025-07-30 22:19:22,494
2025-07-30 22:19:22,521
2025-07-30 22:19:22,530
2025-07-30 22:19:22,495
2025-07-30 22:19:22,513
2025-07-30 22:19:22,535
2025-07-30 22:19:22,502
2025-07-30 22:19:22,505
2025-07-30 22:19:22,537
2025-07-30 22:19:22,510
2025-07-30 22:19:22,499
2025-07-30 22:19:22,534
2025-07-30 22:19:22,519
2025-07-30 22:19:22,496
2025-07-30 22:19:22,530
2025-07-30 22:19:22,525
2025-07-30 22:19:22,494
2025-07-30 22:19:22,523
2025-07-30 22:19:22,533
2025-07-30 22:19:22,498
2025-07-30 22:19:22,514
2025-07-30 22:19:22,537
2025-07-30 22:19:22,505
2025-07-30 22:19:22,507
2025-07-30 22:19:22,539
2025-07-30 22:19:22,512
2025-07-30 22:19:22,497
2025-07-30 22:19:22,535
2025-07-30 22:19:22,521
2025-07-30 22:19:22,496
2025-07-30 22:19:22,529
2025-07-30 22:19:22,528
2025-07-30 22:19:22,496
2025-07-30 22:19:22,523
2025-07-30 22:19:22,534
2025-07-30 22:19:22,501
2025-07-30 22:19:22,515
2025-07-30 22:19:22,541
2025-07-30 22:19:22,508
2025-07-30 22:19:22,505
2025-07-30 22:19:22,541
2025-07-30 22:19:22,516
2025-07-30 22:19:22,501
2025-07-30 22:19:22,538
2025-07-30 22:19:22,524
2025-07-30 22:19:22,496
2025-07-30 22:19:22,529
2025-07-30 22:19:22,532
2025-07-30 22:19:22,497
2025-07-30 22:19:22,521
2025-07-30 22:19:22,536
2025-07-30 22:19:22,501
2025-07-30 22:19:22,515
2025-07-30 22:19:22,540
2025-07-30 22:19:22,506
2025-07-30 22:19:22,505
2025-07-30 22:19:22,540
2025-07-30 22:19:22,515
2025-07-30 22:19:22,499
2025-07-30 22:19:22,535
2025-07-30 22:19:22,523
2025-07-30 22:19:22,495
2025-07-30 22:19:22,528
2025-07-30 22:19:22,530
2025-07-30 22:19:22,495
2025-07-30 22:19:22,519
2025-07-30 22:19:22,537
2025-07-30 22:19:22,501
2025-07-30 22:19:22,513
2025-07-30 22:19:22,538
2025-07-30 22:19:22,507
2025-07-30 22:19:22,505
2025-07-30 22:19:22,540
2025-07-30 22:19:22,515
2025-07-30 22:19:22,499
2025-07-30 22:19:22,536
2025-07-30 22:19:22,525
2025-07-30 22:19:22,498
2025-07-30 22:19:22,531
2025-07-30 22:19:22,534
2025-07-30 22:19:22,498
2025-07-30 22:19:22,523
2025-07-30 22:19:22,540
2025-07-30 22:19:22,503
2025-07-30 22:19:22,513
2025-07-30 22:19:22,540
2025-07-30 22:19:22,508
2025-07-30 22:19:22,502
2025-07-30 22:19:22,535
2025-07-30 22:19:22,515
2025-07-30 22:19:22,498
2025-07-30 22:19:22,534
2025-07-30 22:19:22,524
2025-07-30 22:19:22,495
2025-07-30 22:19:22,527
2025-07-30 22:19:22,533
2025-07-30 22:19:22,497
2025-07-30 22:19:22,517
2025-07-30 22:19:22,536
2025-07-30 22:19:22,499
2025-07-30 22:19:22,506
2025-07-30 22:19:22,535
2025-07-30 22:19:22,503
2025-07-30 22:19:22,496
2025-07-30 22:19:22,532
2025-07-30 22:19:22,512
2025-07-30 22:19:22,491
2025-07-30 22:19:22,526
2025-07-30 22:19:22,519
2025-07-30 22:19:22,489
2025-07-30 22:19:22,520
2025-07-30 22:19:22,526
2025-07-30 22:19:22,491
2025-07-30 22:19:22,510
2025-07-30 22:19:22,531
2025-07-30 22:19:22,495
2025-07-30 22:19:22,499
2025-07-30 22:19:22,531
2025-07-30 22:19:22,501
2025-07-30 22:19:22,490
2025-07-30 22:19:22,526
2025-07-30 22:19:22,506
2025-07-30 22:19:22,483
2025-07-30 22:19:22,518
2025-07-30 22:19:22,514
2025-07-30 22:19:22,482
2025-07-30 22:19:22,511
2025-07-30 22:19:22,518
2025-07-30 22:19:22,483
2025-07-30 22:19:22,501
2025-07-30 22:19:22,522
2025-07-30 22:19:22,486
2025-07-30 22:19:22,491
2025-07-30 22:19:22,523
2025-07-30 22:19:22,493
2025-07-30 22:19:22,482
2025-07-30 22:19:22,518
2025-07-30 22:19:22,500
2025-07-30 22:19:22,477
2025-07-30 22:19:22,514
2025-07-30 22:19:22,508
2025-07-30 22:19:22,475
2025-07-30 22:19:22,502
2025-07-30 22:19:22,513
2025-07-30 22:19:22,477
2025-07-30 22:19:22,494
2025-07-30 22:19:22,514
2025-07-30 22:19:22,481
2025-07-30 22:19:22,485
2025-07-30 22:19:22,517
2025-07-30 22:19:22,491
2025-07-30 22:19:22,479
2025-07-30 22:19:22,515
2025-07-30 22:19:22,497
2025-07-30 22:19:22,473
2025-07-30 22:19:22,509
2025-07-30 22:19:22,506
2025-07-30 22:19:22,473
2025-07-30 22:19:22,501
2025-07-30 22:19:22,511
2025-07-30 22:19:22,475
2025-07-30 22:19:22,488
2025-07-30 22:19:22,514
2025-07-30 22:19:22,482
2025-07-30 22:19:22,482
2025-07-30 22:19:22,511
2025-07-30 22:19:22,488
2025-07-30 22:19:22,476
2025-07-30 22:19:22,511
2025-07-30 22:19:23,495
2025-07-30 22:19:23,471
2025-07-30 22:19:23,504
2025-07-30 22:19:23,504
2025-07-30 22:19:23,471
2025-07-30 22:19:23,494
2025-07-30 22:19:23,508
2025-07-30 22:19:23,471
2025-07-30 22:19:23,485
2025-07-30 22:19:23,511
2025-07-30 22:19:23,478
2025-07-30 22:19:23,477
2025-07-30 22:19:23,512
2025-07-30 22:19:23,488
2025-07-30 22:19:23,472
2025-07-30 22:19:23,506
2025-07-30 22:19:23,493
2025-07-30 22:19:23,467
2025-07-30 22:19:23,502
2025-07-30 22:19:23,500
2025-07-30 22:19:23,466
2025-07-30 22:19:23,491
2025-07-30 22:19:23,506
2025-07-30 22:19:23,468
2025-07-30 22:19:23,480
2025-07-30 22:19:23,510
2025-07-30 22:19:23,478
2025-07-30 22:19:23,476
2025-07-30 22:19:23,511
2025-07-30 22:19:23,487
2025-07-30 22:19:23,471
2025-07-30 22:19:23,507
2025-07-30 22:19:23,496
2025-07-30 22:19:23,468
2025-07-30 22:19:23,500
2025-07-30 22:19:23,503
2025-07-30 22:19:23,469
2025-07-30 22:19:23,493
2025-07-30 22:19:23,509
2025-07-30 22:19:23,472
2025-07-30 22:19:23,484
2025-07-30 22:19:23,514
2025-07-30 22:19:23,481
2025-07-30 22:19:23,477
2025-07-30 22:19:23,511
2025-07-30 22:19:23,488
2025-07-30 22:19:23,469
2025-07-30 22:19:23,506
2025-07-30 22:19:23,496
2025-07-30 22:19:23,467
2025-07-30 22:19:23,498
2025-07-30 22:19:23,504
2025-07-30 22:19:23,470
2025-07-30 22:19:23,493
2025-07-30 22:19:23,510
2025-07-30 22:19:23,477
2025-07-30 22:19:23,485
2025-07-30 22:19:23,514
2025-07-30 22:19:23,483
2025-07-30 22:19:23,480
2025-07-30 22:19:23,516
2025-07-30 22:19:23,493
2025-07-30 22:19:23,474
2025-07-30 22:19:23,510
2025-07-30 22:19:23,501
2025-07-30 22:19:23,470
2025-07-30 22:19:23,501
2025-07-30 22:19:23,509
2025-07-30 22:19:23,475
2025-07-30 22:19:23,495
2025-07-30 22:19:23,514
2025-07-30 22:19:23,478
2025-07-30 22:19:23,485
2025-07-30 22:19:23,513
2025-07-30 22:19:23,484
2025-07-30 22:19:23,478
2025-07-30 22:19:23,514
2025-07-30 22:19:23,494
2025-07-30 22:19:23,474
2025-07-30 22:19:23,509
2025-07-30 22:19:23,502
2025-07-30 22:19:23,471
2025-07-30 22:19:23,503
2025-07-30 22:19:23,513
2025-07-30 22:19:23,476
2025-07-30 22:19:23,495
2025-07-30 22:19:23,518
2025-07-30 22:19:23,482
2025-07-30 22:19:23,484
2025-07-30 22:19:23,517
2025-07-30 22:19:23,487
2025-07-30 22:19:23,476
2025-07-30 22:19:23,512
2025-07-30 22:19:23,495
2025-07-30 22:19:23,474
2025-07-30 22:19:23,509
2025-07-30 22:19:23,504
2025-07-30 22:19:23,474
2025-07-30 22:19:23,502
2025-07-30 22:19:23,512
2025-07-30 22:19:23,476
2025-07-30 22:19:23,495
2025-07-30 22:19:23,519
2025-07-30 22:19:23,484
2025-07-30 22:19:23,487
2025-07-30 22:19:23,520
2025-07-30 22:19:23,492
2025-07-30 22:19:23,479
2025-07-30 22:19:23,516
2025-07-30 22:19:23,501
2025-07-30 22:19:23,477
2025-07-30 22:19:23,512
2025-07-30 22:19:23,508
2025-07-30 22:19:23,477
2025-07-30 22:19:23,504
2025-07-30 22:19:23,513
2025-07-30 22:19:23,478
2025-07-30 22:19:23,495
2025-07-30 22:19:23,520
2025-07-30 22:19:23,486
2025-07-30 22:19:23,488
2025-07-30 22:19:23,522
2025-07-30 22:19:23,494
2025-07-30 22:19:23,482
2025-07-30 22:19:23,520
2025-07-30 22:19:23,505
2025-07-30 22:19:23,479
2025-07-30 22:19:23,513
2025-07-30 22:19:23,512
2025-07-30 22:19:23,479
2025-07-30 22:19:23,507
2025-07-30 22:19:23,519
2025-07-30 22:19:23,483
2025-07-30 22:19:23,497
2025-07-30 22:19:23,521
2025-07-30 22:19:23,488
2025-07-30 22:19:23,488
2025-07-30 22:19:23,522
2025-07-30 22:19:23,497
2025-07-30 22:19:23,483
2025-07-30 22:19:23,519
2025-07-30 22:19:23,504
2025-07-30 22:19:23,479
2025-07-30 22:19:23,513
2025-07-30 22:19:23,515
2025-07-30 22:19:23,480
2025-07-30 22:19:23,503
2025-07-30 22:19:23,520
2025-07-30 22:19:23,483
2025-07-30 22:19:23,496
2025-07-30 22:19:23,521
2025-07-30 22:19:23,490
2025-07-30 22:19:23,490
2025-07-30 22:19:23,523
2025-07-30 22:19:23,499
2025-07-30 22:19:23,484
2025-07-30 22:19:23,521
2025-07-30 22:19:23,509
2025-07-30 22:19:23,481
2025-07-30 22:19:23,516
2025-07-30 22:19:23,518
2025-07-30 22:19:23,481
2025-07-30 22:19:23,506
2025-07-30 22:19:23,524
2025-07-30 22:19:23,489
2025-07-30 22:19:23,499
2025-07-30 22:19:23,528
2025-07-30 22:19:23,495
2025-07-30 22:19:23,490
2025-07-30 22:19:23,526
2025-07-30 22:19:23,502
2025-07-30 22:19:23,485
2025-07-30 22:19:23,523
2025-07-30 22:19:23,510
2025-07-30 22:19:23,482
2025-07-30 22:19:23,514
2025-07-30 22:19:23,518
2025-07-30 22:19:23,482
2025-07-30 22:19:23,506
2025-07-30 22:19:23,525
2025-07-30 22:19:23,488
2025-07-30 22:19:23,498
2025-07-30 22:19:23,527
2025-07-30 22:19:23,495
2025-07-30 22:19:23,489
2025-07-30 22:19:23,526
2025-07-30 22:19:23,505
2025-07-30 22:19:23,486
2025-07-30 22:19:23,522
2025-07-30 22:19:23,512
2025-07-30 22:19:23,483
2025-07-30 22:19:23,515
2025-07-30 22:19:23,519
2025-07-30 22:19:23,485
2025-07-30 22:19:24,506
2025-07-30 22:19:24,528
2025-07-30 22:19:24,491
2025-07-30 22:19:24,497
2025-07-30 22:19:24,528
2025-07-30 22:19:24,496
2025-07-30 22:19:24,488
2025-07-30 22:19:24,525
2025-07-30 22:19:24,504
2025-07-30 22:19:24,484
2025-07-30 22:19:24,522
2025-07-30 22:19:24,516
2025-07-30 22:19:24,483
2025-07-30 22:19:24,514
2025-07-30 22:19:24,520
2025-07-30 22:19:24,486
2025-07-30 22:19:24,507
2025-07-30 22:19:24,527
2025-07-30 22:19:24,492
2025-07-30 22:19:24,498
2025-07-30 22:19:24,530
2025-07-30 22:19:24,500
2025-07-30 22:19:24,491
2025-07-30 22:19:24,527
2025-07-30 22:19:24,509
2025-07-30 22:19:24,486
2025-07-30 22:19:24,522
2025-07-30 22:19:24,516
2025-07-30 22:19:24,484
2025-07-30 22:19:24,512
2025-07-30 22:19:24,524
2025-07-30 22:19:24,489
2025-07-30 22:19:24,508
2025-07-30 22:19:24,529
2025-07-30 22:19:24,495
2025-07-30 22:19:24,498
2025-07-30 22:19:24,529
2025-07-30 22:19:24,500
2025-07-30 22:19:24,491
2025-07-30 22:19:24,527
2025-07-30 22:19:24,510
2025-07-30 22:19:24,486
2025-07-30 22:19:24,523
2025-07-30 22:19:24,520
2025-07-30 22:19:24,486
2025-07-30 22:19:24,515
2025-07-30 22:19:24,526
2025-07-30 22:19:24,491
2025-07-30 22:19:24,505
2025-07-30 22:19:24,530
2025-07-30 22:19:24,496
2025-07-30 22:19:24,497
2025-07-30 22:19:24,529
2025-07-30 22:19:24,504
2025-07-30 22:19:24,493
2025-07-30 22:19:24,530
2025-07-30 22:19:24,512
2025-07-30 22:19:24,489
2025-07-30 22:19:24,525
2025-07-30 22:19:24,523
2025-07-30 22:19:24,489
2025-07-30 22:19:24,517
2025-07-30 22:19:24,530
2025-07-30 22:19:24,492
2025-07-30 22:19:24,507
2025-07-30 22:19:24,533
2025-07-30 22:19:24,498
2025-07-30 22:19:24,499
2025-07-30 22:19:24,534
2025-07-30 22:19:24,509
2025-07-30 22:19:24,495
2025-07-30 22:19:24,531
2025-07-30 22:19:24,516
2025-07-30 22:19:24,492
2025-07-30 22:19:24,527
2025-07-30 22:19:24,524
2025-07-30 22:19:24,492
2025-07-30 22:19:24,519
2025-07-30 22:19:24,533
2025-07-30 22:19:24,495
2025-07-30 22:19:24,510
2025-07-30 22:19:24,538
2025-07-30 22:19:24,504
2025-07-30 22:19:24,504
2025-07-30 22:19:24,538
2025-07-30 22:19:24,512
2025-07-30 22:19:24,496
2025-07-30 22:19:24,534
2025-07-30 22:19:24,521
2025-07-30 22:19:24,494
2025-07-30 22:19:24,528
2025-07-30 22:19:24,528
2025-07-30 22:19:24,496
2025-07-30 22:19:24,521
2025-07-30 22:19:24,535
2025-07-30 22:19:24,500
2025-07-30 22:19:24,512
2025-07-30 22:19:24,538
2025-07-30 22:19:24,506
2025-07-30 22:19:24,502
2025-07-30 22:19:24,537
2025-07-30 22:19:24,514
2025-07-30 22:19:24,497
2025-07-30 22:19:24,535
2025-07-30 22:19:24,525
2025-07-30 22:19:24,496
2025-07-30 22:19:24,528
2025-07-30 22:19:24,534
2025-07-30 22:19:24,500
2025-07-30 22:19:24,523
2025-07-30 22:19:24,540
2025-07-30 22:19:24,504
2025-07-30 22:19:24,515
2025-07-30 22:19:24,543
2025-07-30 22:19:24,510
2025-07-30 22:19:24,504
2025-07-30 22:19:24,540
2025-07-30 22:19:24,518
2025-07-30 22:19:24,499
2025-07-30 22:19:24,537
2025-07-30 22:19:24,529
2025-07-30 22:19:24,498
2025-07-30 22:19:24,532
2025-07-30 22:19:24,537
2025-07-30 22:19:24,502
2025-07-30 22:19:24,522
2025-07-30 22:19:24,543
2025-07-30 22:19:24,508
2025-07-30 22:19:24,515
2025-07-30 22:19:24,543
2025-07-30 22:19:24,513
2025-07-30 22:19:24,505
2025-07-30 22:19:24,541
2025-07-30 22:19:24,519
2025-07-30 22:19:24,499
2025-07-30 22:19:24,537
2025-07-30 22:19:24,529
2025-07-30 22:19:24,497
2025-07-30 22:19:24,531
2025-07-30 22:19:24,539
2025-07-30 22:19:24,503
2025-07-30 22:19:24,523
2025-07-30 22:19:24,542
2025-07-30 22:19:24,505
2025-07-30 22:19:24,513
2025-07-30 22:19:24,545
2025-07-30 22:19:24,516
2025-07-30 22:19:24,506
2025-07-30 22:19:24,542
2025-07-30 22:19:24,523
2025-07-30 22:19:24,503
2025-07-30 22:19:24,541
2025-07-30 22:19:24,531
2025-07-30 22:19:24,501
2025-07-30 22:19:24,531
2025-07-30 22:19:24,539
2025-07-30 22:19:24,502
2025-07-30 22:19:24,521
2025-07-30 22:19:24,544
2025-07-30 22:19:24,509
2025-07-30 22:19:24,513
2025-07-30 22:19:24,545
2025-07-30 22:19:24,517
2025-07-30 22:19:24,507
2025-07-30 22:19:24,543
2025-07-30 22:19:24,525
2025-07-30 22:19:24,502
2025-07-30 22:19:24,536
2025-07-30 22:19:24,531
2025-07-30 22:19:24,501
2025-07-30 22:19:24,531
2025-07-30 22:19:24,540
2025-07-30 22:19:24,504
2025-07-30 22:19:24,522
2025-07-30 22:19:24,546
2025-07-30 22:19:24,510
2025-07-30 22:19:24,512
2025-07-30 22:19:24,546
2025-07-30 22:19:24,519
2025-07-30 22:19:24,506
2025-07-30 22:19:24,543
2025-07-30 22:19:24,527
2025-07-30 22:19:24,502
2025-07-30 22:19:24,536
2025-07-30 22:19:24,534
2025-07-30 22:19:24,500
2025-07-30 22:19:24,526
2025-07-30 22:19:24,536
2025-07-30 22:19:24,503
2025-07-30 22:19:24,518
2025-07-30 22:19:25,541
2025-07-30 22:19:25,508
2025-07-30 22:19:25,509
2025-07-30 22:19:25,544
2025-07-30 22:19:25,517
2025-07-30 22:19:25,503
2025-07-30 22:19:25,541
2025-07-30 22:19:25,526
2025-07-30 22:19:25,499
2025-07-30 22:19:25,534
2025-07-30 22:19:25,533
2025-07-30 22:19:25,497
2025-07-30 22:19:25,524
2025-07-30 22:19:25,539
2025-07-30 22:19:25,502
2025-07-30 22:19:25,515
2025-07-30 22:19:25,540
2025-07-30 22:19:25,508
2025-07-30 22:19:25,507
2025-07-30 22:19:25,543
2025-07-30 22:19:25,516
2025-07-30 22:19:25,501
2025-07-30 22:19:25,539
2025-07-30 22:19:25,527
2025-07-30 22:19:25,499
2025-07-30 22:19:25,534
2025-07-30 22:19:25,535
2025-07-30 22:19:25,500
2025-07-30 22:19:25,527
2025-07-30 22:19:25,542
2025-07-30 22:19:25,504
2025-07-30 22:19:25,515
2025-07-30 22:19:25,544
2025-07-30 22:19:25,511
2025-07-30 22:19:25,507
2025-07-30 22:19:25,543
2025-07-30 22:19:25,519
2025-07-30 22:19:25,504
2025-07-30 22:19:25,541
2025-07-30 22:19:25,526
2025-07-30 22:19:25,498
2025-07-30 22:19:25,533
2025-07-30 22:19:25,536
2025-07-30 22:19:25,499
2025-07-30 22:19:25,523
2025-07-30 22:19:25,541
2025-07-30 22:19:25,503
2025-07-30 22:19:25,515
2025-07-30 22:19:25,542
2025-07-30 22:19:25,510
2025-07-30 22:19:25,504
2025-07-30 22:19:25,538
2025-07-30 22:19:25,518
2025-07-30 22:19:25,498
2025-07-30 22:19:25,536
2025-07-30 22:19:25,527
2025-07-30 22:19:25,499
2025-07-30 22:19:25,531
2025-07-30 22:19:25,533
2025-07-30 22:19:25,498
2025-07-30 22:19:25,521
2025-07-30 22:19:25,538
2025-07-30 22:19:25,502
2025-07-30 22:19:25,510
2025-07-30 22:19:25,540
2025-07-30 22:19:25,509
2025-07-30 22:19:25,503
2025-07-30 22:19:25,540
2025-07-30 22:19:25,518
2025-07-30 22:19:25,497
2025-07-30 22:19:25,531
2025-07-30 22:19:25,526
2025-07-30 22:19:25,496
2025-07-30 22:19:25,527
2025-07-30 22:19:25,533
2025-07-30 22:19:25,500
2025-07-30 22:19:25,520
2025-07-30 22:19:25,540
2025-07-30 22:19:25,505
2025-07-30 22:19:25,510
2025-07-30 22:19:25,542
2025-07-30 22:19:25,511
2025-07-30 22:19:25,502
2025-07-30 22:19:25,539
2025-07-30 22:19:25,519
2025-07-30 22:19:25,497
2025-07-30 22:19:25,535
2025-07-30 22:19:25,529
2025-07-30 22:19:25,496
2025-07-30 22:19:25,524
2025-07-30 22:19:25,535
2025-07-30 22:19:25,499
2025-07-30 22:19:25,518
2025-07-30 22:19:25,537
2025-07-30 22:19:25,505
2025-07-30 22:19:25,509
2025-07-30 22:19:25,540
2025-07-30 22:19:25,509
2025-07-30 22:19:25,500
2025-07-30 22:19:25,538
2025-07-30 22:19:25,519
2025-07-30 22:19:25,496
2025-07-30 22:19:25,534
2025-07-30 22:19:25,529
2025-07-30 22:19:25,496
2025-07-30 22:19:25,527
2025-07-30 22:19:25,536
2025-07-30 22:19:25,499
2025-07-30 22:19:25,515
2025-07-30 22:19:25,539
2025-07-30 22:19:25,503
2025-07-30 22:19:25,507
2025-07-30 22:19:25,538
2025-07-30 22:19:25,511
2025-07-30 22:19:25,503
2025-07-30 22:19:25,539
2025-07-30 22:19:25,521
2025-07-30 22:19:25,497
2025-07-30 22:19:25,534
2025-07-30 22:19:25,531
2025-07-30 22:19:25,497
2025-07-30 22:19:25,526
2025-07-30 22:19:25,536
2025-07-30 22:19:25,500
2025-07-30 22:19:25,516
2025-07-30 22:19:25,541
2025-07-30 22:19:25,507
2025-07-30 22:19:25,508
2025-07-30 22:19:25,539
2025-07-30 22:19:25,514
2025-07-30 22:19:25,500
2025-07-30 22:19:25,535
2025-07-30 22:19:25,521
2025-07-30 22:19:25,497
2025-07-30 22:19:25,530
2025-07-30 22:19:25,529
2025-07-30 22:19:25,496
2025-07-30 22:19:25,523
2025-07-30 22:19:25,536
2025-07-30 22:19:25,500
2025-07-30 22:19:25,513
2025-07-30 22:19:25,540
2025-07-30 22:19:25,506
2025-07-30 22:19:25,505
2025-07-30 22:19:25,539
2025-07-30 22:19:25,513
2025-07-30 22:19:25,498
2025-07-30 22:19:25,534
2025-07-30 22:19:25,523
2025-07-30 22:19:25,495
2025-07-30 22:19:25,527
2025-07-30 22:19:25,527
2025-07-30 22:19:25,495
2025-07-30 22:19:25,521
2025-07-30 22:19:25,536
2025-07-30 22:19:25,499
2025-07-30 22:19:25,510
2025-07-30 22:19:25,537
2025-07-30 22:19:25,505
2025-07-30 22:19:25,500
2025-07-30 22:19:25,535
2025-07-30 22:19:25,509
2025-07-30 22:19:25,492
2025-07-30 22:19:25,531
2025-07-30 22:19:25,520
2025-07-30 22:19:25,489
2025-07-30 22:19:25,521
2025-07-30 22:19:25,525
2025-07-30 22:19:25,490
2025-07-30 22:19:25,514
2025-07-30 22:19:25,528
2025-07-30 22:19:25,493
2025-07-30 22:19:25,507
2025-07-30 22:19:25,536
2025-07-30 22:19:25,502
2025-07-30 22:19:25,497
2025-07-30 22:19:25,532
2025-07-30 22:19:25,509
2025-07-30 22:19:25,491
2025-07-30 22:19:25,530
2025-07-30 22:19:25,521
2025-07-30 22:19:25,490
2025-07-30 22:19:25,523
2025-07-30 22:19:25,528
2025-07-30 22:19:25,494
2025-07-30 22:19:25,516
2025-07-30 22:19:25,535
2025-07-30 22:19:25,498
2025-07-30 22:19:25,507
2025-07-30 22:19:25,534
2025-07-30 22:19:25,502
2025-07-30 22:19:25,496
2025-07-30 22:19:25,534
2025-07-30 22:19:25,511
2025-07-30 22:19:26,494
2025-07-30 22:19:26,530
2025-07-30 22:19:26,521
2025-07-30 22:19:26,491
2025-07-30 22:19:26,524
2025-07-30 22:19:26,530
2025-07-30 22:19:26,492
2025-07-30 22:19:26,512
2025-07-30 22:19:26,530
2025-07-30 22:19:26,494
2025-07-30 22:19:26,498
2025-07-30 22:19:26,528
2025-07-30 22:19:26,500
2025-07-30 22:19:26,491
2025-07-30 22:19:26,526
2025-07-30 22:19:26,507
2025-07-30 22:19:26,489
2025-07-30 22:19:26,526
2025-07-30 22:19:26,518
2025-07-30 22:19:26,487
2025-07-30 22:19:26,517
2025-07-30 22:19:26,525
2025-07-30 22:19:26,490
2025-07-30 22:19:26,510
2025-07-30 22:19:26,532
2025-07-30 22:19:26,496
2025-07-30 22:19:26,500
2025-07-30 22:19:26,531
2025-07-30 22:19:26,502
2025-07-30 22:19:26,491
2025-07-30 22:19:26,526
2025-07-30 22:19:26,510
2025-07-30 22:19:26,487
2025-07-30 22:19:26,521
2025-07-30 22:19:26,518
2025-07-30 22:19:26,489
2025-07-30 22:19:26,520
2025-07-30 22:19:26,529
2025-07-30 22:19:26,493
2025-07-30 22:19:26,510
2025-07-30 22:19:26,532
2025-07-30 22:19:26,497
2025-07-30 22:19:26,501
2025-07-30 22:19:26,534
2025-07-30 22:19:26,505
2025-07-30 22:19:26,492
2025-07-30 22:19:26,531
2025-07-30 22:19:26,515
2025-07-30 22:19:26,491
2025-07-30 22:19:26,526
2025-07-30 22:19:26,523
2025-07-30 22:19:26,489
2025-07-30 22:19:26,518
2025-07-30 22:19:26,528
2025-07-30 22:19:26,493
2025-07-30 22:19:26,508
2025-07-30 22:19:26,533
2025-07-30 22:19:26,497
2025-07-30 22:19:26,500
2025-07-30 22:19:26,533
2025-07-30 22:19:26,506
2025-07-30 22:19:26,493
2025-07-30 22:19:26,531
2025-07-30 22:19:26,515
2025-07-30 22:19:26,488
2025-07-30 22:19:26,525
2025-07-30 22:19:26,525
2025-07-30 22:19:26,492
2025-07-30 22:19:26,517
2025-07-30 22:19:26,530
2025-07-30 22:19:26,494
2025-07-30 22:19:26,509
2025-07-30 22:19:26,531
2025-07-30 22:19:26,498
2025-07-30 22:19:26,499
2025-07-30 22:19:26,533
2025-07-30 22:19:26,507
2025-07-30 22:19:26,492
2025-07-30 22:19:26,528
2025-07-30 22:19:26,514
2025-07-30 22:19:26,487
2025-07-30 22:19:26,523
2025-07-30 22:19:26,524
2025-07-30 22:19:26,490
2025-07-30 22:19:26,515
2025-07-30 22:19:26,528
2025-07-30 22:19:26,491
2025-07-30 22:19:26,502
2025-07-30 22:19:26,529
2025-07-30 22:19:26,499
2025-07-30 22:19:26,497
2025-07-30 22:19:26,530
2025-07-30 22:19:26,506
2025-07-30 22:19:26,491
2025-07-30 22:19:26,529
2025-07-30 22:19:26,516
2025-07-30 22:19:26,489
2025-07-30 22:19:26,522
2025-07-30 22:19:26,524
2025-07-30 22:19:26,489
2025-07-30 22:19:26,512
2025-07-30 22:19:26,530
2025-07-30 22:19:26,493
2025-07-30 22:19:26,501
2025-07-30 22:19:26,530
2025-07-30 22:19:26,497
2025-07-30 22:19:26,492
2025-07-30 22:19:26,528
2025-07-30 22:19:26,506
2025-07-30 22:19:26,488
2025-07-30 22:19:26,526
2025-07-30 22:19:26,514
2025-07-30 22:19:26,485
2025-07-30 22:19:26,518
2025-07-30 22:19:26,522
2025-07-30 22:19:26,486
2025-07-30 22:19:26,510
2025-07-30 22:19:26,529
2025-07-30 22:19:26,492
2025-07-30 22:19:26,502
2025-07-30 22:19:26,533
2025-07-30 22:19:26,502
2025-07-30 22:19:26,494
2025-07-30 22:19:26,532
2025-07-30 22:19:26,511
2025-07-30 22:19:26,490
2025-07-30 22:19:26,526
2025-07-30 22:19:26,520
2025-07-30 22:19:26,488
2025-07-30 22:19:26,521
2025-07-30 22:19:26,526
2025-07-30 22:19:26,491
2025-07-30 22:19:26,514
2025-07-30 22:19:26,534
2025-07-30 22:19:26,496
2025-07-30 22:19:26,504
2025-07-30 22:19:26,535
2025-07-30 22:19:26,504
2025-07-30 22:19:26,496
2025-07-30 22:19:26,533
2025-07-30 22:19:26,512
2025-07-30 22:19:26,490
2025-07-30 22:19:26,528
2025-07-30 22:19:26,522
2025-07-30 22:19:26,490
2025-07-30 22:19:26,520
2025-07-30 22:19:26,529
2025-07-30 22:19:26,492
2025-07-30 22:19:26,512
2025-07-30 22:19:26,531
2025-07-30 22:19:26,497
2025-07-30 22:19:26,503
2025-07-30 22:19:26,534
2025-07-30 22:19:26,504
2025-07-30 22:19:26,494
2025-07-30 22:19:26,531
2025-07-30 22:19:26,512
2025-07-30 22:19:26,488
2025-07-30 22:19:26,527
2025-07-30 22:19:26,523
2025-07-30 22:19:26,490
2025-07-30 22:19:26,519
2025-07-30 22:19:26,529
2025-07-30 22:19:26,492
2025-07-30 22:19:26,510
2025-07-30 22:19:26,533
2025-07-30 22:19:26,498
2025-07-30 22:19:26,503
2025-07-30 22:19:26,535
2025-07-30 22:19:26,508
2025-07-30 22:19:26,495
2025-07-30 22:19:26,532
2025-07-30 22:19:26,515
2025-07-30 22:19:26,491
2025-07-30 22:19:26,526
2025-07-30 22:19:26,521
2025-07-30 22:19:26,488
2025-07-30 22:19:26,518
2025-07-30 22:19:26,531
2025-07-30 22:19:26,495
2025-07-30 22:19:26,510
2025-07-30 22:19:26,534
2025-07-30 22:19:26,497
2025-07-30 22:19:26,496
2025-07-30 22:19:26,532
2025-07-30 22:19:26,506
2025-07-30 22:19:26,492
2025-07-30 22:19:26,530
2025-07-30 22:19:26,515
2025-07-30 22:19:26,490
2025-07-30 22:19:26,525
2025-07-30 22:19:26,522
2025-07-30 22:19:26,487
2025-07-30 22:19:26,515
2025-07-30 22:19:27,530
2025-07-30 22:19:27,493
2025-07-30 22:19:27,507
2025-07-30 22:19:27,535
2025-07-30 22:19:27,500
2025-07-30 22:19:27,498
2025-07-30 22:19:27,534
2025-07-30 22:19:27,509
2025-07-30 22:19:27,495
2025-07-30 22:19:27,532
2025-07-30 22:19:27,520
2025-07-30 22:19:27,491
2025-07-30 22:19:27,525
2025-07-30 22:19:27,525
2025-07-30 22:19:27,491
2025-07-30 22:19:27,518
2025-07-30 22:19:27,534
2025-07-30 22:19:27,496
2025-07-30 22:19:27,511
2025-07-30 22:19:27,539
2025-07-30 22:19:27,505
2025-07-30 22:19:27,504
2025-07-30 22:19:27,542
2025-07-30 22:19:27,519
2025-07-30 22:19:27,503
2025-07-30 22:19:27,543
2025-07-30 22:19:27,532
2025-07-30 22:19:27,503
2025-07-30 22:19:27,536
2025-07-30 22:19:27,541
2025-07-30 22:19:27,505
2025-07-30 22:19:27,530
2025-07-30 22:19:27,546
2025-07-30 22:19:27,509
2025-07-30 22:19:27,520
2025-07-30 22:19:27,549
2025-07-30 22:19:27,516
2025-07-30 22:19:27,511
2025-07-30 22:19:27,546
2025-07-30 22:19:27,523
2025-07-30 22:19:27,502
2025-07-30 22:19:27,542
2025-07-30 22:19:27,533
2025-07-30 22:19:27,502
2025-07-30 22:19:27,534
2025-07-30 22:19:27,539
2025-07-30 22:19:27,504
2025-07-30 22:19:27,527
2025-07-30 22:19:27,545
2025-07-30 22:19:27,508
2025-07-30 22:19:27,517
2025-07-30 22:19:27,546
2025-07-30 22:19:27,514
2025-07-30 22:19:27,508
2025-07-30 22:19:27,544
2025-07-30 22:19:27,522
2025-07-30 22:19:27,502
2025-07-30 22:19:27,539
2025-07-30 22:19:27,531
2025-07-30 22:19:27,499
2025-07-30 22:19:27,531
2025-07-30 22:19:27,539
2025-07-30 22:19:27,503
2025-07-30 22:19:27,523
2025-07-30 22:19:27,544
2025-07-30 22:19:27,506
2025-07-30 22:19:27,513
2025-07-30 22:19:27,545
2025-07-30 22:19:27,514
2025-07-30 22:19:27,504
2025-07-30 22:19:27,541
2025-07-30 22:19:27,520
2025-07-30 22:19:27,497
2025-07-30 22:19:27,536
2025-07-30 22:19:27,529
2025-07-30 22:19:27,495
2025-07-30 22:19:27,529
2025-07-30 22:19:27,537
2025-07-30 22:19:27,498
2025-07-30 22:19:27,518
2025-07-30 22:19:27,542
2025-07-30 22:19:27,506
2025-07-30 22:19:27,510
2025-07-30 22:19:27,543
2025-07-30 22:19:27,514
2025-07-30 22:19:27,504
2025-07-30 22:19:27,540
2025-07-30 22:19:27,522
2025-07-30 22:19:27,499
2025-07-30 22:19:27,536
2025-07-30 22:19:27,529
2025-07-30 22:19:27,497
2025-07-30 22:19:27,528
2025-07-30 22:19:27,535
2025-07-30 22:19:27,499
2025-07-30 22:19:27,518
2025-07-30 22:19:27,541
2025-07-30 22:19:27,504
2025-07-30 22:19:27,507
2025-07-30 22:19:27,541
2025-07-30 22:19:27,512
2025-07-30 22:19:27,499
2025-07-30 22:19:27,537
2025-07-30 22:19:27,521
2025-07-30 22:19:27,498
2025-07-30 22:19:27,533
2025-07-30 22:19:27,528
2025-07-30 22:19:27,494
2025-07-30 22:19:27,523
2025-07-30 22:19:27,532
2025-07-30 22:19:27,497
2025-07-30 22:19:27,515
2025-07-30 22:19:27,540
2025-07-30 22:19:27,504
2025-07-30 22:19:27,505
2025-07-30 22:19:27,540
2025-07-30 22:19:27,512
2025-07-30 22:19:27,499
2025-07-30 22:19:27,538
2025-07-30 22:19:27,522
2025-07-30 22:19:27,495
2025-07-30 22:19:27,527
2025-07-30 22:19:27,526
2025-07-30 22:19:27,490
2025-07-30 22:19:27,517
2025-07-30 22:19:27,531
2025-07-30 22:19:27,495
2025-07-30 22:19:27,508
2025-07-30 22:19:27,532
2025-07-30 22:19:27,500
2025-07-30 22:19:27,499
2025-07-30 22:19:27,535
2025-07-30 22:19:27,508
2025-07-30 22:19:27,493
2025-07-30 22:19:27,530
2025-07-30 22:19:27,515
2025-07-30 22:19:27,487
2025-07-30 22:19:27,522
2025-07-30 22:19:27,524
2025-07-30 22:19:27,489
2025-07-30 22:19:27,513
2025-07-30 22:19:27,529
2025-07-30 22:19:27,492
2025-07-30 22:19:27,505
2025-07-30 22:19:27,532
2025-07-30 22:19:27,499
2025-07-30 22:19:27,496
2025-07-30 22:19:27,531
2025-07-30 22:19:27,506
2025-07-30 22:19:27,489
2025-07-30 22:19:27,528
2025-07-30 22:19:27,515
2025-07-30 22:19:27,487
2025-07-30 22:19:27,521
2025-07-30 22:19:27,523
2025-07-30 22:19:27,486
2025-07-30 22:19:27,512
2025-07-30 22:19:27,531
2025-07-30 22:19:27,492
2025-07-30 22:19:27,503
2025-07-30 22:19:27,532
2025-07-30 22:19:27,498
2025-07-30 22:19:27,493
2025-07-30 22:19:27,527
2025-07-30 22:19:27,504
2025-07-30 22:19:27,487
2025-07-30 22:19:27,526
2025-07-30 22:19:27,514
2025-07-30 22:19:27,486
2025-07-30 22:19:27,520
2025-07-30 22:19:27,523
2025-07-30 22:19:27,488
2025-07-30 22:19:27,512
2025-07-30 22:19:27,531
2025-07-30 22:19:27,493
2025-07-30 22:19:27,502
2025-07-30 22:19:27,531
2025-07-30 22:19:27,499
2025-07-30 22:19:27,491
2025-07-30 22:19:27,528
2025-07-30 22:19:27,507
2025-07-30 22:19:27,487
2025-07-30 22:19:27,522
2025-07-30 22:19:27,514
2025-07-30 22:19:27,484
2025-07-30 22:19:27,516
2025-07-30 22:19:27,519
2025-07-30 22:19:27,485
2025-07-30 22:19:27,507
2025-07-30 22:19:27,525
2025-07-30 22:19:28,489
2025-07-30 22:19:28,497
2025-07-30 22:19:28,528
2025-07-30 22:19:28,497
2025-07-30 22:19:28,488
2025-07-30 22:19:28,525
2025-07-30 22:19:28,506
2025-07-30 22:19:28,484
2025-07-30 22:19:28,520
2025-07-30 22:19:28,515
2025-07-30 22:19:28,483
2025-07-30 22:19:28,512
2025-07-30 22:19:28,524
2025-07-30 22:19:28,488
2025-07-30 22:19:28,507
2025-07-30 22:19:28,527
2025-07-30 22:19:28,491
2025-07-30 22:19:28,496
2025-07-30 22:19:28,529
2025-07-30 22:19:28,497
2025-07-30 22:19:28,487
2025-07-30 22:19:28,526
2025-07-30 22:19:28,508
2025-07-30 22:19:28,485
2025-07-30 22:19:28,522
2025-07-30 22:19:28,518
2025-07-30 22:19:28,486
2025-07-30 22:19:28,515
2025-07-30 22:19:28,526
2025-07-30 22:19:28,489
2025-07-30 22:19:28,506
2025-07-30 22:19:28,529
2025-07-30 22:19:28,494
2025-07-30 22:19:28,496
2025-07-30 22:19:28,529
2025-07-30 22:19:28,500
2025-07-30 22:19:28,491
2025-07-30 22:19:28,529
2025-07-30 22:19:28,511
2025-07-30 22:19:28,488
2025-07-30 22:19:28,525
2025-07-30 22:19:28,520
2025-07-30 22:19:28,486
2025-07-30 22:19:28,516
2025-07-30 22:19:28,527
2025-07-30 22:19:28,490
2025-07-30 22:19:28,507
2025-07-30 22:19:28,532
2025-07-30 22:19:28,496
2025-07-30 22:19:28,498
2025-07-30 22:19:28,532
2025-07-30 22:19:28,505
2025-07-30 22:19:28,491
2025-07-30 22:19:28,529
2025-07-30 22:19:28,511
2025-07-30 22:19:28,487
2025-07-30 22:19:28,523
2025-07-30 22:19:28,521
2025-07-30 22:19:28,487
2025-07-30 22:19:28,514
2025-07-30 22:19:28,528
2025-07-30 22:19:28,490
2025-07-30 22:19:28,505
2025-07-30 22:19:28,532
2025-07-30 22:19:28,498
2025-07-30 22:19:28,498
2025-07-30 22:19:28,534
2025-07-30 22:19:28,508
2025-07-30 22:19:28,493
2025-07-30 22:19:28,528
2025-07-30 22:19:28,515
2025-07-30 22:19:28,489
2025-07-30 22:19:28,524
2025-07-30 22:19:28,523
2025-07-30 22:19:28,490
2025-07-30 22:19:28,515
2025-07-30 22:19:28,529
2025-07-30 22:19:28,491
2025-07-30 22:19:28,505
2025-07-30 22:19:28,532
2025-07-30 22:19:28,500
2025-07-30 22:19:28,499
2025-07-30 22:19:28,535
2025-07-30 22:19:28,510
2025-07-30 22:19:28,491
2025-07-30 22:19:28,527
2025-07-30 22:19:28,515
2025-07-30 22:19:28,487
2025-07-30 22:19:28,519
2025-07-30 22:19:28,525
2025-07-30 22:19:28,489
2025-07-30 22:19:28,513
2025-07-30 22:19:28,529
2025-07-30 22:19:28,495
2025-07-30 22:19:28,505
2025-07-30 22:19:28,532
2025-07-30 22:19:28,501
2025-07-30 22:19:28,497
2025-07-30 22:19:28,533
2025-07-30 22:19:28,509
2025-07-30 22:19:28,491
2025-07-30 22:19:28,529
2025-07-30 22:19:28,521
2025-07-30 22:19:28,491
2025-07-30 22:19:28,524
2025-07-30 22:19:28,530
2025-07-30 22:19:28,494
2025-07-30 22:19:28,516
2025-07-30 22:19:28,534
2025-07-30 22:19:28,498
2025-07-30 22:19:28,509
2025-07-30 22:19:28,539
2025-07-30 22:19:28,507
2025-07-30 22:19:28,502
2025-07-30 22:19:28,538
2025-07-30 22:19:28,514
2025-07-30 22:19:28,493
2025-07-30 22:19:28,530
2025-07-30 22:19:28,520
2025-07-30 22:19:28,488
2025-07-30 22:19:28,521
2025-07-30 22:19:28,528
2025-07-30 22:19:28,491
2025-07-30 22:19:28,512
2025-07-30 22:19:28,532
2025-07-30 22:19:28,496
2025-07-30 22:19:28,502
2025-07-30 22:19:28,532
2025-07-30 22:19:28,502
2025-07-30 22:19:28,494
2025-07-30 22:19:28,530
2025-07-30 22:19:28,509
2025-07-30 22:19:28,490
2025-07-30 22:19:28,527
2025-07-30 22:19:28,518
2025-07-30 22:19:28,486
2025-07-30 22:19:28,517
2025-07-30 22:19:28,524
2025-07-30 22:19:28,487
2025-07-30 22:19:28,507
2025-07-30 22:19:28,529
2025-07-30 22:19:28,494
2025-07-30 22:19:28,498
2025-07-30 22:19:28,529
2025-07-30 22:19:28,500
2025-07-30 22:19:28,489
2025-07-30 22:19:28,524
2025-07-30 22:19:28,505
2025-07-30 22:19:28,483
2025-07-30 22:19:28,521
2025-07-30 22:19:28,515
2025-07-30 22:19:28,484
2025-07-30 22:19:28,513
2025-07-30 22:19:28,522
2025-07-30 22:19:28,486
2025-07-30 22:19:28,503
2025-07-30 22:19:28,526
2025-07-30 22:19:28,491
2025-07-30 22:19:28,494
2025-07-30 22:19:28,528
2025-07-30 22:19:28,499
2025-07-30 22:19:28,487
2025-07-30 22:19:28,523
2025-07-30 22:19:28,507
2025-07-30 22:19:28,482
2025-07-30 22:19:28,515
2025-07-30 22:19:28,515
2025-07-30 22:19:28,483
2025-07-30 22:19:28,509
2025-07-30 22:19:28,521
2025-07-30 22:19:28,485
2025-07-30 22:19:28,501
2025-07-30 22:19:28,526
2025-07-30 22:19:28,492
2025-07-30 22:19:28,493
2025-07-30 22:19:28,527
2025-07-30 22:19:28,499
2025-07-30 22:19:28,484
2025-07-30 22:19:28,523
2025-07-30 22:19:28,509
2025-07-30 22:19:28,482
2025-07-30 22:19:28,518
2025-07-30 22:19:28,518
2025-07-30 22:19:28,484
2025-07-30 22:19:28,512
2025-07-30 22:19:28,527
2025-07-30 22:19:28,491
2025-07-30 22:19:28,505
2025-07-30 22:19:28,530
2025-07-30 22:19:28,497
2025-07-30 22:19:28,497
2025-07-30 22:19:28,531
2025-07-30 22:19:28,504
2025-07-30 22:19:28,489
2025-07-30 22:19:29,528
2025-07-30 22:19:29,515
2025-07-30 22:19:29,487
2025-07-30 22:19:29,522
2025-07-30 22:19:29,523
2025-07-30 22:19:29,487
2025-07-30 22:19:29,513
2025-07-30 22:19:29,529
2025-07-30 22:19:29,491
2025-07-30 22:19:29,505
2025-07-30 22:19:29,531
2025-07-30 22:19:29,497
2025-07-30 22:19:29,496
2025-07-30 22:19:29,531
2025-07-30 22:19:29,509
2025-07-30 22:19:29,494
2025-07-30 22:19:29,531
2025-07-30 22:19:29,519
2025-07-30 22:19:29,491
2025-07-30 22:19:29,525
2025-07-30 22:19:29,527
2025-07-30 22:19:29,491
2025-07-30 22:19:29,515
2025-07-30 22:19:29,532
2025-07-30 22:19:29,496
2025-07-30 22:19:29,508
2025-07-30 22:19:29,537
2025-07-30 22:19:29,505
2025-07-30 22:19:29,501
2025-07-30 22:19:29,534
2025-07-30 22:19:29,513
2025-07-30 22:19:29,494
2025-07-30 22:19:29,530
2025-07-30 22:19:29,520
2025-07-30 22:19:29,492
2025-07-30 22:19:29,525
2025-07-30 22:19:29,530
2025-07-30 22:19:29,494
2025-07-30 22:19:29,517
2025-07-30 22:19:29,535
2025-07-30 22:19:29,498
2025-07-30 22:19:29,507
2025-07-30 22:19:29,538
2025-07-30 22:19:29,507
2025-07-30 22:19:29,500
2025-07-30 22:19:29,536
2025-07-30 22:19:29,514
2025-07-30 22:19:29,492
2025-07-30 22:19:29,529
2025-07-30 22:19:29,522
2025-07-30 22:19:29,491
2025-07-30 22:19:29,523
2025-07-30 22:19:29,527
2025-07-30 22:19:29,493
2025-07-30 22:19:29,514
2025-07-30 22:19:29,534
2025-07-30 22:19:29,498
2025-07-30 22:19:29,505
2025-07-30 22:19:29,538
2025-07-30 22:19:29,507
2025-07-30 22:19:29,496
2025-07-30 22:19:29,533
2025-07-30 22:19:29,514
2025-07-30 22:19:29,490
2025-07-30 22:19:29,526
2025-07-30 22:19:29,520
2025-07-30 22:19:29,487
2025-07-30 22:19:29,518
2025-07-30 22:19:29,528
2025-07-30 22:19:29,492
2025-07-30 22:19:29,511
2025-07-30 22:19:29,532
2025-07-30 22:19:29,497
2025-07-30 22:19:29,503
2025-07-30 22:19:29,532
2025-07-30 22:19:29,501
2025-07-30 22:19:29,491
2025-07-30 22:19:29,528
2025-07-30 22:19:29,508
2025-07-30 22:19:29,485
2025-07-30 22:19:29,522
2025-07-30 22:19:29,516
2025-07-30 22:19:29,482
2025-07-30 22:19:29,511
2025-07-30 22:19:29,522
2025-07-30 22:19:29,485
2025-07-30 22:19:29,501
2025-07-30 22:19:29,522
2025-07-30 22:19:29,486
2025-07-30 22:19:29,490
2025-07-30 22:19:29,520
2025-07-30 22:19:29,490
2025-07-30 22:19:29,479
2025-07-30 22:19:29,514
2025-07-30 22:19:29,494
2025-07-30 22:19:29,469
2025-07-30 22:19:29,506
2025-07-30 22:19:29,503
2025-07-30 22:19:29,467
2025-07-30 22:19:29,493
2025-07-30 22:19:29,503
2025-07-30 22:19:29,467
2025-07-30 22:19:29,480
2025-07-30 22:19:29,505
2025-07-30 22:19:29,472
2025-07-30 22:19:29,473
2025-07-30 22:19:29,505
2025-07-30 22:19:29,479
2025-07-30 22:19:29,465
2025-07-30 22:19:29,501
2025-07-30 22:19:29,486
2025-07-30 22:19:29,462
2025-07-30 22:19:29,495
2025-07-30 22:19:29,493
2025-07-30 22:19:29,458
2025-07-30 22:19:29,484
2025-07-30 22:19:29,497
2025-07-30 22:19:29,460
2025-07-30 22:19:29,474
2025-07-30 22:19:29,500
2025-07-30 22:19:29,468
2025-07-30 22:19:29,466
2025-07-30 22:19:29,502
2025-07-30 22:19:29,478
2025-07-30 22:19:29,461
2025-07-30 22:19:29,497
2025-07-30 22:19:29,484
2025-07-30 22:19:29,456
2025-07-30 22:19:29,489
2025-07-30 22:19:29,489
2025-07-30 22:19:29,455
2025-07-30 22:19:29,482
2025-07-30 22:19:29,497
2025-07-30 22:19:29,459
2025-07-30 22:19:29,471
2025-07-30 22:19:29,499
2025-07-30 22:19:29,466
2025-07-30 22:19:29,461
2025-07-30 22:19:29,498
2025-07-30 22:19:29,474
2025-07-30 22:19:29,455
2025-07-30 22:19:29,493
2025-07-30 22:19:29,483
2025-07-30 22:19:29,452
2025-07-30 22:19:29,485
2025-07-30 22:19:29,491
2025-07-30 22:19:29,454
2025-07-30 22:19:29,480
2025-07-30 22:19:29,496
2025-07-30 22:19:29,459
2025-07-30 22:19:29,470
2025-07-30 22:19:29,502
2025-07-30 22:19:29,469
2025-07-30 22:19:29,464
2025-07-30 22:19:29,500
2025-07-30 22:19:29,476
2025-07-30 22:19:29,456
2025-07-30 22:19:29,494
2025-07-30 22:19:29,485
2025-07-30 22:19:29,454
2025-07-30 22:19:29,486
2025-07-30 22:19:29,492
2025-07-30 22:19:29,454
2025-07-30 22:19:29,475
2025-07-30 22:19:29,494
2025-07-30 22:19:29,458
2025-07-30 22:19:29,466
2025-07-30 22:19:29,496
2025-07-30 22:19:29,465
2025-07-30 22:19:29,459
2025-07-30 22:19:29,496
2025-07-30 22:19:29,474
2025-07-30 22:19:29,452
2025-07-30 22:19:29,490
2025-07-30 22:19:29,483
2025-07-30 22:19:29,451
2025-07-30 22:19:29,484
2025-07-30 22:19:29,490
2025-07-30 22:19:29,453
2025-07-30 22:19:29,474
2025-07-30 22:19:29,495
2025-07-30 22:19:29,459
2025-07-30 22:19:29,466
2025-07-30 22:19:29,496
2025-07-30 22:19:29,467
2025-07-30 22:19:29,459
2025-07-30 22:19:29,495
2025-07-30 22:19:29,476
2025-07-30 22:19:29,455
2025-07-30 22:19:29,492
2025-07-30 22:19:30,485
2025-07-30 22:19:30,452
2025-07-30 22:19:30,485
2025-07-30 22:19:30,493
2025-07-30 22:19:30,455
2025-07-30 22:19:30,474
2025-07-30 22:19:30,497
2025-07-30 22:19:30,461
2025-07-30 22:19:30,465
2025-07-30 22:19:30,498
2025-07-30 22:19:30,469
2025-07-30 22:19:30,459
2025-07-30 22:19:30,497
2025-07-30 22:19:30,481
2025-07-30 22:19:30,457
2025-07-30 22:19:30,495
2025-07-30 22:19:30,491
2025-07-30 22:19:30,459
2025-07-30 22:19:30,490
2025-07-30 22:19:30,502
2025-07-30 22:19:30,465
2025-07-30 22:19:30,483
2025-07-30 22:19:30,508
2025-07-30 22:19:30,473
2025-07-30 22:19:30,476
2025-07-30 22:19:30,512
2025-07-30 22:19:30,484
2025-07-30 22:19:30,471
2025-07-30 22:19:30,510
2025-07-30 22:19:30,494
2025-07-30 22:19:30,468
2025-07-30 22:19:30,505
2025-07-30 22:19:30,504
2025-07-30 22:19:30,473
2025-07-30 22:19:30,502
2025-07-30 22:19:30,512
2025-07-30 22:19:30,477
2025-07-30 22:19:30,495
2025-07-30 22:19:30,520
2025-07-30 22:19:30,485
2025-07-30 22:19:30,488
2025-07-30 22:19:30,524
2025-07-30 22:19:30,495
2025-07-30 22:19:30,482
2025-07-30 22:19:30,521
2025-07-30 22:19:30,506
2025-07-30 22:19:30,479
2025-07-30 22:19:30,515
2025-07-30 22:19:30,516
2025-07-30 22:19:30,483
2025-07-30 22:19:30,510
2025-07-30 22:19:30,525
2025-07-30 22:19:30,488
2025-07-30 22:19:30,503
2025-07-30 22:19:30,528
2025-07-30 22:19:30,494
2025-07-30 22:19:30,496
2025-07-30 22:19:30,531
2025-07-30 22:19:30,505
2025-07-30 22:19:30,490
2025-07-30 22:19:30,529
2025-07-30 22:19:30,517
2025-07-30 22:19:30,489
2025-07-30 22:19:30,525
2025-07-30 22:19:30,528
2025-07-30 22:19:30,492
2025-07-30 22:19:30,519
2025-07-30 22:19:30,536
2025-07-30 22:19:30,499
2025-07-30 22:19:30,510
2025-07-30 22:19:30,538
2025-07-30 22:19:30,506
2025-07-30 22:19:30,503
2025-07-30 22:19:30,538
2025-07-30 22:19:30,512
2025-07-30 22:19:30,495
2025-07-30 22:19:30,534
2025-07-30 22:19:30,523
2025-07-30 22:19:30,494
2025-07-30 22:19:30,528
2025-07-30 22:19:30,534
2025-07-30 22:19:30,497
2025-07-30 22:19:30,522
2025-07-30 22:19:30,539
2025-07-30 22:19:30,500
2025-07-30 22:19:30,510
2025-07-30 22:19:30,541
2025-07-30 22:19:30,509
2025-07-30 22:19:30,503
2025-07-30 22:19:30,541
2025-07-30 22:19:30,520
2025-07-30 22:19:30,500
2025-07-30 22:19:30,539
2025-07-30 22:19:30,529
2025-07-30 22:19:30,499
2025-07-30 22:19:30,533
2025-07-30 22:19:30,539
2025-07-30 22:19:30,500
2025-07-30 22:19:30,524
2025-07-30 22:19:30,545
2025-07-30 22:19:30,506
2025-07-30 22:19:30,514
2025-07-30 22:19:30,545
2025-07-30 22:19:30,513
2025-07-30 22:19:30,505
2025-07-30 22:19:30,545
2025-07-30 22:19:30,523
2025-07-30 22:19:30,501
2025-07-30 22:19:30,538
2025-07-30 22:19:30,531
2025-07-30 22:19:30,498
2025-07-30 22:19:30,532
2025-07-30 22:19:30,539
2025-07-30 22:19:30,503
2025-07-30 22:19:30,525
2025-07-30 22:19:30,548
2025-07-30 22:19:30,509
2025-07-30 22:19:30,515
2025-07-30 22:19:30,549
2025-07-30 22:19:30,518
2025-07-30 22:19:30,508
2025-07-30 22:19:30,548
2025-07-30 22:19:30,528
2025-07-30 22:19:30,504
2025-07-30 22:19:30,543
2025-07-30 22:19:30,538
2025-07-30 22:19:30,503
2025-07-30 22:19:30,533
2025-07-30 22:19:30,542
2025-07-30 22:19:30,504
2025-07-30 22:19:30,524
2025-07-30 22:19:30,545
2025-07-30 22:19:30,510
2025-07-30 22:19:30,516
2025-07-30 22:19:30,549
2025-07-30 22:19:30,521
2025-07-30 22:19:30,508
2025-07-30 22:19:30,548
2025-07-30 22:19:30,530
2025-07-30 22:19:30,503
2025-07-30 22:19:30,541
2025-07-30 22:19:30,538
2025-07-30 22:19:30,503
2025-07-30 22:19:30,533
2025-07-30 22:19:30,546
2025-07-30 22:19:30,507
2025-07-30 22:19:30,524
2025-07-30 22:19:30,548
2025-07-30 22:19:30,514
2025-07-30 22:19:30,515
2025-07-30 22:19:30,549
2025-07-30 22:19:30,521
2025-07-30 22:19:30,509
2025-07-30 22:19:30,548
2025-07-30 22:19:30,531
2025-07-30 22:19:30,504
2025-07-30 22:19:30,540
2025-07-30 22:19:30,538
2025-07-30 22:19:30,501
2025-07-30 22:19:30,530
2025-07-30 22:19:30,544
2025-07-30 22:19:30,505
2025-07-30 22:19:30,519
2025-07-30 22:19:30,546
2025-07-30 22:19:30,510
2025-07-30 22:19:30,509
2025-07-30 22:19:30,543
2025-07-30 22:19:30,521
2025-07-30 22:19:30,506
2025-07-30 22:19:30,545
2025-07-30 22:19:30,529
2025-07-30 22:19:30,500
2025-07-30 22:19:30,537
2025-07-30 22:19:30,537
2025-07-30 22:19:30,499
2025-07-30 22:19:30,527
2025-07-30 22:19:30,544
2025-07-30 22:19:30,506
2025-07-30 22:19:30,520
2025-07-30 22:19:30,547
2025-07-30 22:19:30,513
2025-07-30 22:19:30,513
2025-07-30 22:19:30,549
2025-07-30 22:19:30,524
2025-07-30 22:19:30,507
2025-07-30 22:19:30,544
2025-07-30 22:19:30,532
2025-07-30 22:19:30,505
2025-07-30 22:19:30,541
2025-07-30 22:19:30,542
2025-07-30 22:19:30,506
2025-07-30 22:19:30,532
2025-07-30 22:19:30,548
2025-07-30 22:19:30,510
2025-07-30 22:19:31,524
2025-07-30 22:19:31,552
2025-07-30 22:19:31,516
2025-07-30 22:19:31,511
2025-07-30 22:19:31,548
2025-07-30 22:19:31,524
2025-07-30 22:19:31,505
2025-07-30 22:19:31,545
2025-07-30 22:19:31,534
2025-07-30 22:19:31,504
2025-07-30 22:19:31,537
2025-07-30 22:19:31,540
2025-07-30 22:19:31,505
2025-07-30 22:19:31,528
2025-07-30 22:19:31,543
2025-07-30 22:19:31,506
2025-07-30 22:19:31,518
2025-07-30 22:19:31,546
2025-07-30 22:19:31,512
2025-07-30 22:19:31,508
2025-07-30 22:19:31,546
2025-07-30 22:19:31,524
2025-07-30 22:19:31,502
2025-07-30 22:19:31,540
2025-07-30 22:19:31,531
2025-07-30 22:19:31,498
2025-07-30 22:19:31,531
2025-07-30 22:19:31,540
2025-07-30 22:19:31,502
2025-07-30 22:19:31,523
2025-07-30 22:19:31,543
2025-07-30 22:19:31,507
2025-07-30 22:19:31,514
2025-07-30 22:19:31,546
2025-07-30 22:19:31,515
2025-07-30 22:19:31,506
2025-07-30 22:19:31,544
2025-07-30 22:19:31,521
2025-07-30 22:19:31,498
2025-07-30 22:19:31,538
2025-07-30 22:19:31,531
2025-07-30 22:19:31,498
2025-07-30 22:19:31,530
2025-07-30 22:19:31,538
2025-07-30 22:19:31,500
2025-07-30 22:19:31,519
2025-07-30 22:19:31,542
2025-07-30 22:19:31,504
2025-07-30 22:19:31,509
2025-07-30 22:19:31,541
2025-07-30 22:19:31,513
2025-07-30 22:19:31,504
2025-07-30 22:19:31,543
2025-07-30 22:19:31,521
2025-07-30 22:19:31,499
2025-07-30 22:19:31,538
2025-07-30 22:19:31,533
2025-07-30 22:19:31,498
2025-07-30 22:19:31,529
2025-07-30 22:19:31,539
2025-07-30 22:19:31,499
2025-07-30 22:19:31,519
2025-07-30 22:19:31,542
2025-07-30 22:19:31,504
2025-07-30 22:19:31,506
2025-07-30 22:19:31,542
2025-07-30 22:19:31,515
2025-07-30 22:19:31,503
2025-07-30 22:19:31,541
2025-07-30 22:19:31,524
2025-07-30 22:19:31,499
2025-07-30 22:19:31,535
2025-07-30 22:19:31,530
2025-07-30 22:19:31,498
2025-07-30 22:19:31,529
2025-07-30 22:19:31,540
2025-07-30 22:19:31,501
2025-07-30 22:19:31,519
2025-07-30 22:19:31,544
2025-07-30 22:19:31,507
2025-07-30 22:19:31,509
2025-07-30 22:19:31,544
2025-07-30 22:19:31,515
2025-07-30 22:19:31,501
2025-07-30 22:19:31,542
2025-07-30 22:19:31,526
2025-07-30 22:19:31,500
2025-07-30 22:19:31,535
2025-07-30 22:19:31,535
2025-07-30 22:19:31,502
2025-07-30 22:19:31,532
2025-07-30 22:19:31,543
2025-07-30 22:19:31,508
2025-07-30 22:19:31,524
2025-07-30 22:19:31,549
2025-07-30 22:19:31,512
2025-07-30 22:19:31,511
2025-07-30 22:19:31,546
2025-07-30 22:19:31,519
2025-07-30 22:19:31,502
2025-07-30 22:19:31,541
2025-07-30 22:19:31,526
2025-07-30 22:19:31,497
2025-07-30 22:19:31,532
2025-07-30 22:19:31,536
2025-07-30 22:19:31,500
2025-07-30 22:19:31,526
2025-07-30 22:19:31,541
2025-07-30 22:19:31,504
2025-07-30 22:19:31,516
2025-07-30 22:19:31,543
2025-07-30 22:19:31,508
2025-07-30 22:19:31,506
2025-07-30 22:19:31,543
2025-07-30 22:19:31,518
2025-07-30 22:19:31,501
2025-07-30 22:19:31,542
2025-07-30 22:19:31,531
2025-07-30 22:19:31,502
2025-07-30 22:19:31,536
2025-07-30 22:19:31,539
2025-07-30 22:19:31,502
2025-07-30 22:19:31,525
2025-07-30 22:19:31,544
2025-07-30 22:19:31,506
2025-07-30 22:19:31,520
2025-07-30 22:19:31,549
2025-07-30 22:19:31,518
2025-07-30 22:19:31,515
2025-07-30 22:19:31,551
2025-07-30 22:19:31,527
2025-07-30 22:19:31,508
2025-07-30 22:19:31,549
2025-07-30 22:19:31,540
2025-07-30 22:19:31,507
2025-07-30 22:19:31,541
2025-07-30 22:19:31,545
2025-07-30 22:19:31,507
2025-07-30 22:19:31,533
2025-07-30 22:19:31,552
2025-07-30 22:19:31,513
2025-07-30 22:19:31,522
2025-07-30 22:19:31,553
2025-07-30 22:19:31,519
2025-07-30 22:19:31,514
2025-07-30 22:19:31,549
2025-07-30 22:19:31,527
2025-07-30 22:19:31,507
2025-07-30 22:19:31,546
2025-07-30 22:19:31,536
2025-07-30 22:19:31,506
2025-07-30 22:19:31,540
2025-07-30 22:19:31,546
2025-07-30 22:19:31,509
2025-07-30 22:19:31,532
2025-07-30 22:19:31,552
2025-07-30 22:19:31,515
2025-07-30 22:19:31,522
2025-07-30 22:19:31,552
2025-07-30 22:19:31,520
2025-07-30 22:19:31,512
2025-07-30 22:19:31,549
2025-07-30 22:19:31,530
2025-07-30 22:19:31,510
2025-07-30 22:19:31,545
2025-07-30 22:19:31,539
2025-07-30 22:19:31,506
2025-07-30 22:19:31,538
2025-07-30 22:19:31,545
2025-07-30 22:19:31,508
2025-07-30 22:19:31,527
2025-07-30 22:19:31,548
2025-07-30 22:19:31,510
2025-07-30 22:19:31,516
2025-07-30 22:19:31,548
2025-07-30 22:19:31,518
2025-07-30 22:19:31,509
2025-07-30 22:19:31,547
2025-07-30 22:19:31,527
2025-07-30 22:19:31,500
2025-07-30 22:19:31,538
2025-07-30 22:19:31,534
2025-07-30 22:19:31,501
2025-07-30 22:19:31,530
2025-07-30 22:19:31,541
2025-07-30 22:19:31,505
2025-07-30 22:19:31,523
2025-07-30 22:19:31,548
2025-07-30 22:19:31,511
2025-07-30 22:19:31,513
2025-07-30 22:19:31,547
2025-07-30 22:19:31,517
2025-07-30 22:19:31,505
2025-07-30 22:19:32,546
2025-07-30 22:19:32,530
2025-07-30 22:19:32,503
2025-07-30 22:19:32,540
2025-07-30 22:19:32,538
2025-07-30 22:19:32,504
2025-07-30 22:19:32,532
2025-07-30 22:19:32,546
2025-07-30 22:19:32,508
2025-07-30 22:19:32,523
2025-07-30 22:19:32,547
2025-07-30 22:19:32,513
2025-07-30 22:19:32,514
2025-07-30 22:19:32,548
2025-07-30 22:19:32,520
2025-07-30 22:19:32,506
2025-07-30 22:19:32,545
2025-07-30 22:19:32,528
2025-07-30 22:19:32,501
2025-07-30 22:19:32,539
2025-07-30 22:19:32,539
2025-07-30 22:19:32,503
2025-07-30 22:19:32,532
2025-07-30 22:19:32,547
2025-07-30 22:19:32,508
2025-07-30 22:19:32,522
2025-07-30 22:19:32,550
2025-07-30 22:19:32,516
2025-07-30 22:19:32,515
2025-07-30 22:19:32,549
2025-07-30 22:19:32,524
2025-07-30 22:19:32,507
2025-07-30 22:19:32,547
2025-07-30 22:19:32,532
2025-07-30 22:19:32,506
2025-07-30 22:19:32,542
2025-07-30 22:19:32,542
2025-07-30 22:19:32,506
2025-07-30 22:19:32,533
2025-07-30 22:19:32,549
2025-07-30 22:19:32,509
2025-07-30 22:19:32,521
2025-07-30 22:19:32,549
2025-07-30 22:19:32,514
2025-07-30 22:19:32,510
2025-07-30 22:19:32,547
2025-07-30 22:19:32,523
2025-07-30 22:19:32,505
2025-07-30 22:19:32,543
2025-07-30 22:19:32,531
2025-07-30 22:19:32,502
2025-07-30 22:19:32,536
2025-07-30 22:19:32,539
2025-07-30 22:19:32,505
2025-07-30 22:19:32,528
2025-07-30 22:19:32,544
2025-07-30 22:19:32,506
2025-07-30 22:19:32,516
2025-07-30 22:19:32,547
2025-07-30 22:19:32,512
2025-07-30 22:19:32,507
2025-07-30 22:19:32,544
2025-07-30 22:19:32,520
2025-07-30 22:19:32,499
2025-07-30 22:19:32,536
2025-07-30 22:19:32,528
2025-07-30 22:19:32,497
2025-07-30 22:19:32,528
2025-07-30 22:19:32,533
2025-07-30 22:19:32,498
2025-07-30 22:19:32,520
2025-07-30 22:19:32,542
2025-07-30 22:19:32,505
2025-07-30 22:19:32,514
2025-07-30 22:19:32,545
2025-07-30 22:19:32,512
2025-07-30 22:19:32,504
2025-07-30 22:19:32,544
2025-07-30 22:19:32,521
2025-07-30 22:19:32,498
2025-07-30 22:19:32,537
2025-07-30 22:19:32,530
2025-07-30 22:19:32,496
2025-07-30 22:19:32,529
2025-07-30 22:19:32,537
2025-07-30 22:19:32,499
2025-07-30 22:19:32,520
2025-07-30 22:19:32,541
2025-07-30 22:19:32,504
2025-07-30 22:19:32,510
2025-07-30 22:19:32,542
2025-07-30 22:19:32,511
2025-07-30 22:19:32,502
2025-07-30 22:19:32,541
2025-07-30 22:19:32,520
2025-07-30 22:19:32,496
2025-07-30 22:19:32,533
2025-07-30 22:19:32,527
2025-07-30 22:19:32,494
2025-07-30 22:19:32,526
2025-07-30 22:19:32,536
2025-07-30 22:19:32,498
2025-07-30 22:19:32,517
2025-07-30 22:19:32,541
2025-07-30 22:19:32,503
2025-07-30 22:19:32,508
2025-07-30 22:19:32,540
2025-07-30 22:19:32,511
2025-07-30 22:19:32,501
2025-07-30 22:19:32,540
2025-07-30 22:19:32,519
2025-07-30 22:19:32,495
2025-07-30 22:19:32,532
2025-07-30 22:19:32,528
2025-07-30 22:19:32,494
2025-07-30 22:19:32,525
2025-07-30 22:19:32,535
2025-07-30 22:19:32,495
2025-07-30 22:19:32,513
2025-07-30 22:19:32,537
2025-07-30 22:19:32,501
2025-07-30 22:19:32,502
2025-07-30 22:19:32,538
2025-07-30 22:19:32,513
2025-07-30 22:19:32,496
2025-07-30 22:19:32,531
2025-07-30 22:19:32,518
2025-07-30 22:19:32,493
2025-07-30 22:19:32,530
2025-07-30 22:19:32,526
2025-07-30 22:19:32,492
2025-07-30 22:19:32,521
2025-07-30 22:19:32,534
2025-07-30 22:19:32,496
2025-07-30 22:19:32,511
2025-07-30 22:19:32,537
2025-07-30 22:19:32,502
2025-07-30 22:19:32,503
2025-07-30 22:19:32,538
2025-07-30 22:19:32,510
2025-07-30 22:19:32,496
2025-07-30 22:19:32,536
2025-07-30 22:19:32,521
2025-07-30 22:19:32,493
2025-07-30 22:19:32,527
2025-07-30 22:19:32,527
2025-07-30 22:19:32,493
2025-07-30 22:19:32,520
2025-07-30 22:19:32,533
2025-07-30 22:19:32,497
2025-07-30 22:19:32,512
2025-07-30 22:19:32,539
2025-07-30 22:19:32,503
2025-07-30 22:19:32,500
2025-07-30 22:19:32,538
2025-07-30 22:19:32,513
2025-07-30 22:19:32,495
2025-07-30 22:19:32,534
2025-07-30 22:19:32,521
2025-07-30 22:19:32,491
2025-07-30 22:19:32,527
2025-07-30 22:19:32,532
2025-07-30 22:19:32,494
2025-07-30 22:19:32,520
2025-07-30 22:19:32,536
2025-07-30 22:19:32,499
2025-07-30 22:19:32,510
2025-07-30 22:19:32,538
2025-07-30 22:19:32,503
2025-07-30 22:19:32,503
2025-07-30 22:19:32,540
2025-07-30 22:19:32,513
2025-07-30 22:19:32,493
2025-07-30 22:19:32,532
2025-07-30 22:19:32,522
2025-07-30 22:19:32,492
2025-07-30 22:19:32,526
2025-07-30 22:19:32,530
2025-07-30 22:19:32,492
2025-07-30 22:19:32,516
2025-07-30 22:19:32,535
2025-07-30 22:19:32,498
2025-07-30 22:19:32,508
2025-07-30 22:19:32,535
2025-07-30 22:19:32,504
2025-07-30 22:19:32,499
2025-07-30 22:19:32,536
2025-07-30 22:19:32,513
2025-07-30 22:19:32,494
2025-07-30 22:19:32,532
2025-07-30 22:19:32,522
2025-07-30 22:19:33,491
2025-07-30 22:19:33,526
2025-07-30 22:19:33,531
2025-07-30 22:19:33,494
2025-07-30 22:19:33,516
2025-07-30 22:19:33,535
2025-07-30 22:19:33,497
2025-07-30 22:19:33,505
2025-07-30 22:19:33,536
2025-07-30 22:19:33,507
2025-07-30 22:19:33,498
2025-07-30 22:19:33,533
2025-07-30 22:19:33,514
2025-07-30 22:19:33,494
2025-07-30 22:19:33,531
2025-07-30 22:19:33,522
2025-07-30 22:19:33,493
2025-07-30 22:19:33,525
2025-07-30 22:19:33,532
2025-07-30 22:19:33,493
2025-07-30 22:19:33,512
2025-07-30 22:19:33,535
2025-07-30 22:19:33,497
2025-07-30 22:19:33,502
2025-07-30 22:19:33,536
2025-07-30 22:19:33,506
2025-07-30 22:19:33,496
2025-07-30 22:19:33,534
2025-07-30 22:19:33,514
2025-07-30 22:19:33,489
2025-07-30 22:19:33,524
2025-07-30 22:19:33,520
2025-07-30 22:19:33,489
2025-07-30 22:19:33,519
2025-07-30 22:19:33,527
2025-07-30 22:19:33,489
2025-07-30 22:19:33,508
2025-07-30 22:19:33,532
2025-07-30 22:19:33,496
2025-07-30 22:19:33,499
2025-07-30 22:19:33,534
2025-07-30 22:19:33,505
2025-07-30 22:19:33,493
2025-07-30 22:19:33,533
2025-07-30 22:19:33,515
2025-07-30 22:19:33,489
2025-07-30 22:19:33,526
2025-07-30 22:19:33,524
2025-07-30 22:19:33,488
2025-07-30 22:19:33,517
2025-07-30 22:19:33,528
2025-07-30 22:19:33,491
2025-07-30 22:19:33,509
2025-07-30 22:19:33,534
2025-07-30 22:19:33,498
2025-07-30 22:19:33,502
2025-07-30 22:19:33,537
2025-07-30 22:19:33,506
2025-07-30 22:19:33,493
2025-07-30 22:19:33,532
2025-07-30 22:19:33,517
2025-07-30 22:19:33,490
2025-07-30 22:19:33,527
2025-07-30 22:19:33,525
2025-07-30 22:19:33,490
2025-07-30 22:19:33,518
2025-07-30 22:19:33,532
2025-07-30 22:19:33,494
2025-07-30 22:19:33,510
2025-07-30 22:19:33,535
2025-07-30 22:19:33,502
2025-07-30 22:19:33,502
2025-07-30 22:19:33,536
2025-07-30 22:19:33,509
2025-07-30 22:19:33,493
2025-07-30 22:19:33,533
2025-07-30 22:19:33,519
2025-07-30 22:19:33,490
2025-07-30 22:19:33,525
2025-07-30 22:19:33,526
2025-07-30 22:19:33,490
2025-07-30 22:19:33,516
2025-07-30 22:19:33,533
2025-07-30 22:19:33,496
2025-07-30 22:19:33,509
2025-07-30 22:19:33,537
2025-07-30 22:19:33,501
2025-07-30 22:19:33,499
2025-07-30 22:19:33,532
2025-07-30 22:19:33,508
2025-07-30 22:19:33,492
2025-07-30 22:19:33,528
2025-07-30 22:19:33,514
2025-07-30 22:19:33,485
2025-07-30 22:19:33,520
2025-07-30 22:19:33,523
2025-07-30 22:19:33,486
2025-07-30 22:19:33,511
2025-07-30 22:19:33,530
2025-07-30 22:19:33,492
2025-07-30 22:19:33,502
2025-07-30 22:19:33,533
2025-07-30 22:19:33,501
2025-07-30 22:19:33,494
2025-07-30 22:19:33,532
2025-07-30 22:19:33,510
2025-07-30 22:19:33,490
2025-07-30 22:19:33,528
2025-07-30 22:19:33,519
2025-07-30 22:19:33,489
2025-07-30 22:19:33,519
2025-07-30 22:19:33,523
2025-07-30 22:19:33,488
2025-07-30 22:19:33,513
2025-07-30 22:19:33,533
2025-07-30 22:19:33,493
2025-07-30 22:19:33,500
2025-07-30 22:19:33,533
2025-07-30 22:19:33,502
2025-07-30 22:19:33,494
2025-07-30 22:19:33,532
2025-07-30 22:19:33,510
2025-07-30 22:19:33,489
2025-07-30 22:19:33,528
2025-07-30 22:19:33,521
2025-07-30 22:19:33,488
2025-07-30 22:19:33,519
2025-07-30 22:19:33,526
2025-07-30 22:19:33,491
2025-07-30 22:19:33,513
2025-07-30 22:19:33,533
2025-07-30 22:19:33,494
2025-07-30 22:19:33,503
2025-07-30 22:19:33,536
2025-07-30 22:19:33,504
2025-07-30 22:19:33,496
2025-07-30 22:19:33,534
2025-07-30 22:19:33,513
2025-07-30 22:19:33,490
2025-07-30 22:19:33,529
2025-07-30 22:19:33,522
2025-07-30 22:19:33,489
2025-07-30 22:19:33,521
2025-07-30 22:19:33,530
2025-07-30 22:19:33,494
2025-07-30 22:19:33,513
2025-07-30 22:19:33,533
2025-07-30 22:19:33,498
2025-07-30 22:19:33,501
2025-07-30 22:19:33,534
2025-07-30 22:19:33,504
2025-07-30 22:19:33,495
2025-07-30 22:19:33,533
2025-07-30 22:19:33,515
2025-07-30 22:19:33,490
2025-07-30 22:19:33,527
2025-07-30 22:19:33,526
2025-07-30 22:19:33,492
2025-07-30 22:19:33,521
2025-07-30 22:19:33,531
2025-07-30 22:19:33,494
2025-07-30 22:19:33,512
2025-07-30 22:19:33,538
2025-07-30 22:19:33,500
2025-07-30 22:19:33,502
2025-07-30 22:19:33,537
2025-07-30 22:19:33,509
2025-07-30 22:19:33,496
2025-07-30 22:19:33,534
2025-07-30 22:19:33,516
2025-07-30 22:19:33,490
2025-07-30 22:19:33,528
2025-07-30 22:19:33,527
2025-07-30 22:19:33,490
2025-07-30 22:19:33,519
2025-07-30 22:19:33,533
2025-07-30 22:19:33,493
2025-07-30 22:19:33,508
2025-07-30 22:19:33,535
2025-07-30 22:19:33,499
2025-07-30 22:19:33,497
2025-07-30 22:19:33,534
2025-07-30 22:19:33,506
2025-07-30 22:19:33,488
2025-07-30 22:19:33,527
2025-07-30 22:19:33,514
2025-07-30 22:19:33,487
2025-07-30 22:19:33,525
2025-07-30 22:19:33,524
2025-07-30 22:19:33,488
2025-07-30 22:19:33,516
2025-07-30 22:19:33,532
2025-07-30 22:19:33,491
2025-07-30 22:19:33,505
2025-07-30 22:19:34,534
2025-07-30 22:19:34,498
2025-07-30 22:19:34,496
2025-07-30 22:19:34,534
2025-07-30 22:19:34,508
2025-07-30 22:19:34,490
2025-07-30 22:19:34,532
2025-07-30 22:19:34,518
2025-07-30 22:19:34,488
2025-07-30 22:19:34,522
2025-07-30 22:19:34,523
2025-07-30 22:19:34,489
2025-07-30 22:19:34,515
2025-07-30 22:19:34,532
2025-07-30 22:19:34,494
2025-07-30 22:19:34,508
2025-07-30 22:19:34,537
2025-07-30 22:19:34,502
2025-07-30 22:19:34,499
2025-07-30 22:19:34,537
2025-07-30 22:19:34,511
2025-07-30 22:19:34,492
2025-07-30 22:19:34,531
2025-07-30 22:19:34,517
2025-07-30 22:19:34,485
2025-07-30 22:19:34,521
2025-07-30 22:19:34,526
2025-07-30 22:19:34,488
2025-07-30 22:19:34,511
2025-07-30 22:19:34,528
2025-07-30 22:19:34,492
2025-07-30 22:19:34,502
2025-07-30 22:19:34,532
2025-07-30 22:19:34,498
2025-07-30 22:19:34,493
2025-07-30 22:19:34,531
2025-07-30 22:19:34,508
2025-07-30 22:19:34,486
2025-07-30 22:19:34,525
2025-07-30 22:19:34,518
2025-07-30 22:19:34,486
2025-07-30 22:19:34,520
2025-07-30 22:19:34,526
2025-07-30 22:19:34,487
2025-07-30 22:19:34,508
2025-07-30 22:19:34,531
2025-07-30 22:19:34,494
2025-07-30 22:19:34,500
2025-07-30 22:19:34,531
2025-07-30 22:19:34,501
2025-07-30 22:19:34,493
2025-07-30 22:19:34,530
2025-07-30 22:19:34,506
2025-07-30 22:19:34,483
2025-07-30 22:19:34,522
2025-07-30 22:19:34,514
2025-07-30 22:19:34,481
2025-07-30 22:19:34,514
2025-07-30 22:19:34,519
2025-07-30 22:19:34,480
2025-07-30 22:19:34,501
2025-07-30 22:19:34,525
2025-07-30 22:19:34,486
2025-07-30 22:19:34,489
2025-07-30 22:19:34,523
2025-07-30 22:19:34,492
2025-07-30 22:19:34,481
2025-07-30 22:19:34,519
2025-07-30 22:19:34,500
2025-07-30 22:19:34,476
2025-07-30 22:19:34,515
2025-07-30 22:19:34,507
2025-07-30 22:19:34,471
2025-07-30 22:19:34,500
2025-07-30 22:19:34,510
2025-07-30 22:19:34,469
2025-07-30 22:19:34,487
2025-07-30 22:19:34,511
2025-07-30 22:19:34,472
2025-07-30 22:19:34,476
2025-07-30 22:19:34,511
2025-07-30 22:19:34,479
2025-07-30 22:19:34,466
2025-07-30 22:19:34,505
2025-07-30 22:19:34,487
2025-07-30 22:19:34,462
2025-07-30 22:19:34,499
2025-07-30 22:19:34,494
2025-07-30 22:19:34,461
2025-07-30 22:19:34,491
2025-07-30 22:19:34,502
2025-07-30 22:19:34,463
2025-07-30 22:19:34,480
2025-07-30 22:19:34,506
2025-07-30 22:19:34,468
2025-07-30 22:19:34,469
2025-07-30 22:19:34,505
2025-07-30 22:19:34,475
2025-07-30 22:19:34,460
2025-07-30 22:19:34,499
2025-07-30 22:19:34,482
2025-07-30 22:19:34,455
2025-07-30 22:19:34,491
2025-07-30 22:19:34,492
2025-07-30 22:19:34,456
2025-07-30 22:19:34,483
2025-07-30 22:19:34,496
2025-07-30 22:19:34,458
2025-07-30 22:19:34,473
2025-07-30 22:19:34,500
2025-07-30 22:19:34,465
2025-07-30 22:19:34,463
2025-07-30 22:19:34,499
2025-07-30 22:19:34,472
2025-07-30 22:19:34,455
2025-07-30 22:19:34,495
2025-07-30 22:19:34,482
2025-07-30 22:19:34,453
2025-07-30 22:19:34,490
2025-07-30 22:19:34,491
2025-07-30 22:19:34,452
2025-07-30 22:19:34,478
2025-07-30 22:19:34,495
2025-07-30 22:19:34,456
2025-07-30 22:19:34,468
2025-07-30 22:19:34,495
2025-07-30 22:19:34,461
2025-07-30 22:19:34,458
2025-07-30 22:19:34,497
2025-07-30 22:19:34,472
2025-07-30 22:19:34,452
2025-07-30 22:19:34,491
2025-07-30 22:19:34,480
2025-07-30 22:19:34,448
2025-07-30 22:19:34,483
2025-07-30 22:19:34,488
2025-07-30 22:19:34,450
2025-07-30 22:19:34,476
2025-07-30 22:19:34,494
2025-07-30 22:19:34,455
2025-07-30 22:19:34,464
2025-07-30 22:19:34,495
2025-07-30 22:19:34,460
2025-07-30 22:19:34,454
2025-07-30 22:19:34,492
2025-07-30 22:19:34,470
2025-07-30 22:19:34,449
2025-07-30 22:19:34,491
2025-07-30 22:19:34,479
2025-07-30 22:19:34,446
2025-07-30 22:19:34,482
2025-07-30 22:19:34,486
2025-07-30 22:19:34,447
2025-07-30 22:19:34,470
2025-07-30 22:19:34,493
2025-07-30 22:19:34,454
2025-07-30 22:19:34,464
2025-07-30 22:19:34,499
2025-07-30 22:19:34,466
2025-07-30 22:19:34,459
2025-07-30 22:19:34,500
2025-07-30 22:19:34,479
2025-07-30 22:19:34,456
2025-07-30 22:19:34,495
2025-07-30 22:19:34,487
2025-07-30 22:19:34,456
2025-07-30 22:19:34,489
2025-07-30 22:19:34,495
2025-07-30 22:19:34,458
2025-07-30 22:19:34,481
2025-07-30 22:19:34,502
2025-07-30 22:19:34,464
2025-07-30 22:19:34,472
2025-07-30 22:19:34,507
2025-07-30 22:19:34,475
2025-07-30 22:19:34,464
2025-07-30 22:19:34,505
2025-07-30 22:19:34,486
2025-07-30 22:19:34,464
2025-07-30 22:19:34,504
2025-07-30 22:19:34,499
2025-07-30 22:19:34,464
2025-07-30 22:19:34,497
2025-07-30 22:19:34,505
2025-07-30 22:19:34,468
2025-07-30 22:19:34,489
2025-07-30 22:19:34,512
2025-07-30 22:19:34,475
2025-07-30 22:19:34,480
2025-07-30 22:19:34,514
2025-07-30 22:19:35,484
2025-07-30 22:19:35,472
2025-07-30 22:19:35,513
2025-07-30 22:19:35,495
2025-07-30 22:19:35,468
2025-07-30 22:19:35,508
2025-07-30 22:19:35,504
2025-07-30 22:19:35,469
2025-07-30 22:19:35,499
2025-07-30 22:19:35,513
2025-07-30 22:19:35,474
2025-07-30 22:19:35,491
2025-07-30 22:19:35,517
2025-07-30 22:19:35,482
2025-07-30 22:19:35,485
2025-07-30 22:19:35,520
2025-07-30 22:19:35,491
2025-07-30 22:19:35,479
2025-07-30 22:19:35,519
2025-07-30 22:19:35,502
2025-07-30 22:19:35,474
2025-07-30 22:19:35,512
2025-07-30 22:19:35,513
2025-07-30 22:19:35,477
2025-07-30 22:19:35,507
2025-07-30 22:19:35,521
2025-07-30 22:19:35,481
2025-07-30 22:19:35,497
2025-07-30 22:19:35,526
2025-07-30 22:19:35,491
2025-07-30 22:19:35,493
2025-07-30 22:19:35,528
2025-07-30 22:19:35,502
2025-07-30 22:19:35,486
2025-07-30 22:19:35,527
2025-07-30 22:19:35,511
2025-07-30 22:19:35,485
2025-07-30 22:19:35,523
2025-07-30 22:19:35,524
2025-07-30 22:19:35,485
2025-07-30 22:19:35,513
2025-07-30 22:19:35,529
2025-07-30 22:19:35,488
2025-07-30 22:19:35,503
2025-07-30 22:19:35,533
2025-07-30 22:19:35,497
2025-07-30 22:19:35,494
2025-07-30 22:19:35,530
2025-07-30 22:19:35,505
2025-07-30 22:19:35,489
2025-07-30 22:19:35,527
2025-07-30 22:19:35,513
2025-07-30 22:19:35,484
2025-07-30 22:19:35,521
2025-07-30 22:19:35,523
2025-07-30 22:19:35,487
2025-07-30 22:19:35,513
2025-07-30 22:19:35,531
2025-07-30 22:19:35,494
2025-07-30 22:19:35,506
2025-07-30 22:19:35,536
2025-07-30 22:19:35,501
2025-07-30 22:19:35,496
2025-07-30 22:19:35,534
2025-07-30 22:19:35,508
2025-07-30 22:19:35,489
2025-07-30 22:19:35,528
2025-07-30 22:19:35,519
2025-07-30 22:19:35,487
2025-07-30 22:19:35,521
2025-07-30 22:19:35,526
2025-07-30 22:19:35,489
2025-07-30 22:19:35,514
2025-07-30 22:19:35,533
2025-07-30 22:19:35,497
2025-07-30 22:19:35,508
2025-07-30 22:19:35,540
2025-07-30 22:19:35,506
2025-07-30 22:19:35,498
2025-07-30 22:19:35,536
2025-07-30 22:19:35,514
2025-07-30 22:19:35,493
2025-07-30 22:19:35,534
2025-07-30 22:19:35,527
2025-07-30 22:19:35,494
2025-07-30 22:19:35,527
2025-07-30 22:19:35,535
2025-07-30 22:19:35,497
2025-07-30 22:19:35,518
2025-07-30 22:19:35,537
2025-07-30 22:19:35,500
2025-07-30 22:19:35,508
2025-07-30 22:19:35,542
2025-07-30 22:19:35,510
2025-07-30 22:19:35,500
2025-07-30 22:19:35,541
2025-07-30 22:19:35,520
2025-07-30 22:19:35,496
2025-07-30 22:19:35,537
2025-07-30 22:19:35,531
2025-07-30 22:19:35,496
2025-07-30 22:19:35,531
2025-07-30 22:19:35,540
2025-07-30 22:19:35,501
2025-07-30 22:19:35,521
2025-07-30 22:19:35,545
2025-07-30 22:19:35,506
2025-07-30 22:19:35,510
2025-07-30 22:19:35,542
2025-07-30 22:19:35,512
2025-07-30 22:19:35,502
2025-07-30 22:19:35,542
2025-07-30 22:19:35,520
2025-07-30 22:19:35,497
2025-07-30 22:19:35,536
2025-07-30 22:19:35,532
2025-07-30 22:19:35,498
2025-07-30 22:19:35,530
2025-07-30 22:19:35,541
2025-07-30 22:19:35,502
2025-07-30 22:19:35,522
2025-07-30 22:19:35,547
2025-07-30 22:19:35,508
2025-07-30 22:19:35,512
2025-07-30 22:19:35,545
2025-07-30 22:19:35,517
2025-07-30 22:19:35,505
2025-07-30 22:19:35,544
2025-07-30 22:19:35,526
2025-07-30 22:19:35,501
2025-07-30 22:19:35,540
2025-07-30 22:19:35,535
2025-07-30 22:19:35,500
2025-07-30 22:19:35,530
2025-07-30 22:19:35,542
2025-07-30 22:19:35,503
2025-07-30 22:19:35,521
2025-07-30 22:19:35,546
2025-07-30 22:19:35,509
2025-07-30 22:19:35,511
2025-07-30 22:19:35,547
2025-07-30 22:19:35,517
2025-07-30 22:19:35,501
2025-07-30 22:19:35,538
2025-07-30 22:19:35,525
2025-07-30 22:19:35,499
2025-07-30 22:19:35,536
2025-07-30 22:19:35,534
2025-07-30 22:19:35,500
2025-07-30 22:19:35,529
2025-07-30 22:19:35,542
2025-07-30 22:19:35,503
2025-07-30 22:19:35,517
2025-07-30 22:19:35,545
2025-07-30 22:19:35,508
2025-07-30 22:19:35,509
2025-07-30 22:19:35,546
2025-07-30 22:19:35,521
2025-07-30 22:19:35,504
2025-07-30 22:19:35,543
2025-07-30 22:19:35,529
2025-07-30 22:19:35,498
2025-07-30 22:19:35,533
2025-07-30 22:19:35,538
2025-07-30 22:19:35,501
2025-07-30 22:19:35,526
2025-07-30 22:19:35,541
2025-07-30 22:19:35,504
2025-07-30 22:19:35,516
2025-07-30 22:19:35,545
2025-07-30 22:19:35,510
2025-07-30 22:19:35,508
2025-07-30 22:19:35,547
2025-07-30 22:19:35,521
2025-07-30 22:19:35,499
2025-07-30 22:19:35,540
2025-07-30 22:19:35,529
2025-07-30 22:19:35,498
2025-07-30 22:19:35,536
2025-07-30 22:19:35,539
2025-07-30 22:19:35,500
2025-07-30 22:19:35,524
2025-07-30 22:19:35,543
2025-07-30 22:19:35,504
2025-07-30 22:19:35,516
2025-07-30 22:19:35,544
2025-07-30 22:19:35,511
2025-07-30 22:19:35,507
2025-07-30 22:19:35,546
2025-07-30 22:19:35,519
2025-07-30 22:19:35,501
2025-07-30 22:19:35,542
2025-07-30 22:19:35,532
2025-07-30 22:19:35,500
2025-07-30 22:19:36,535
2025-07-30 22:19:36,539
2025-07-30 22:19:36,501
2025-07-30 22:19:36,525
2025-07-30 22:19:36,543
2025-07-30 22:19:36,506
2025-07-30 22:19:36,516
2025-07-30 22:19:36,549
2025-07-30 22:19:36,517
2025-07-30 22:19:36,509
2025-07-30 22:19:36,546
2025-07-30 22:19:36,521
2025-07-30 22:19:36,501
2025-07-30 22:19:36,540
2025-07-30 22:19:36,531
2025-07-30 22:19:36,499
2025-07-30 22:19:36,534
2025-07-30 22:19:36,540
2025-07-30 22:19:36,501
2025-07-30 22:19:36,524
2025-07-30 22:19:36,545
2025-07-30 22:19:36,508
2025-07-30 22:19:36,515
2025-07-30 22:19:36,549
2025-07-30 22:19:36,518
2025-07-30 22:19:36,509
2025-07-30 22:19:36,546
2025-07-30 22:19:36,527
2025-07-30 22:19:36,505
2025-07-30 22:19:36,541
2025-07-30 22:19:36,533
2025-07-30 22:19:36,501
2025-07-30 22:19:36,533
2025-07-30 22:19:36,542
2025-07-30 22:19:36,504
2025-07-30 22:19:36,523
2025-07-30 22:19:36,546
2025-07-30 22:19:36,510
2025-07-30 22:19:36,514
2025-07-30 22:19:36,548
2025-07-30 22:19:36,518
2025-07-30 22:19:36,506
2025-07-30 22:19:36,545
2025-07-30 22:19:36,527
2025-07-30 22:19:36,502
2025-07-30 22:19:36,539
2025-07-30 22:19:36,537
2025-07-30 22:19:36,502
2025-07-30 22:19:36,533
2025-07-30 22:19:36,544
2025-07-30 22:19:36,507
2025-07-30 22:19:36,525
2025-07-30 22:19:36,549
2025-07-30 22:19:36,514
2025-07-30 22:19:36,516
2025-07-30 22:19:36,552
2025-07-30 22:19:36,523
2025-07-30 22:19:36,508
2025-07-30 22:19:36,548
2025-07-30 22:19:36,532
2025-07-30 22:19:36,504
2025-07-30 22:19:36,543
2025-07-30 22:19:36,541
2025-07-30 22:19:36,505
2025-07-30 22:19:36,534
2025-07-30 22:19:36,548
2025-07-30 22:19:36,510
2025-07-30 22:19:36,526
2025-07-30 22:19:36,551
2025-07-30 22:19:36,516
2025-07-30 22:19:36,516
2025-07-30 22:19:36,552
2025-07-30 22:19:36,524
2025-07-30 22:19:36,511
2025-07-30 22:19:36,551
2025-07-30 22:19:36,535
2025-07-30 22:19:36,507
2025-07-30 22:19:36,544
2025-07-30 22:19:36,546
2025-07-30 22:19:36,509
2025-07-30 22:19:36,538
2025-07-30 22:19:36,552
2025-07-30 22:19:36,516
2025-07-30 22:19:36,528
2025-07-30 22:19:36,555
2025-07-30 22:19:36,521
2025-07-30 22:19:36,520
2025-07-30 22:19:36,552
2025-07-30 22:19:36,528
2025-07-30 22:19:36,513
2025-07-30 22:19:36,552
2025-07-30 22:19:36,538
2025-07-30 22:19:36,510
2025-07-30 22:19:36,546
2025-07-30 22:19:36,548
2025-07-30 22:19:36,510
2025-07-30 22:19:36,537
2025-07-30 22:19:36,555
2025-07-30 22:19:36,518
2025-07-30 22:19:36,529
2025-07-30 22:19:36,557
2025-07-30 22:19:36,523
2025-07-30 22:19:36,518
2025-07-30 22:19:36,554
2025-07-30 22:19:36,531
2025-07-30 22:19:36,512
2025-07-30 22:19:36,549
2025-07-30 22:19:36,538
2025-07-30 22:19:36,510
2025-07-30 22:19:36,544
2025-07-30 22:19:36,546
2025-07-30 22:19:36,510
2025-07-30 22:19:36,535
2025-07-30 22:19:36,554
2025-07-30 22:19:36,517
2025-07-30 22:19:36,528
2025-07-30 22:19:36,560
2025-07-30 22:19:36,526
2025-07-30 22:19:36,517
2025-07-30 22:19:36,555
2025-07-30 22:19:36,533
2025-07-30 22:19:36,511
2025-07-30 22:19:36,549
2025-07-30 22:19:36,542
2025-07-30 22:19:36,510
2025-07-30 22:19:36,543
2025-07-30 22:19:36,547
2025-07-30 22:19:36,512
2025-07-30 22:19:36,535
2025-07-30 22:19:36,554
2025-07-30 22:19:36,515
2025-07-30 22:19:36,523
2025-07-30 22:19:36,555
2025-07-30 22:19:36,523
2025-07-30 22:19:36,516
2025-07-30 22:19:36,554
2025-07-30 22:19:36,532
2025-07-30 22:19:36,507
2025-07-30 22:19:36,549
2025-07-30 22:19:36,543
2025-07-30 22:19:36,510
2025-07-30 22:19:36,540
2025-07-30 22:19:36,548
2025-07-30 22:19:36,508
2025-07-30 22:19:36,528
2025-07-30 22:19:36,552
2025-07-30 22:19:36,516
2025-07-30 22:19:36,522
2025-07-30 22:19:36,555
2025-07-30 22:19:36,524
2025-07-30 22:19:36,516
2025-07-30 22:19:36,553
2025-07-30 22:19:36,533
2025-07-30 22:19:36,509
2025-07-30 22:19:36,548
2025-07-30 22:19:36,542
2025-07-30 22:19:36,507
2025-07-30 22:19:36,538
2025-07-30 22:19:36,550
2025-07-30 22:19:36,513
2025-07-30 22:19:36,528
2025-07-30 22:19:36,555
2025-07-30 22:19:36,521
2025-07-30 22:19:36,523
2025-07-30 22:19:36,553
2025-07-30 22:19:36,524
2025-07-30 22:19:36,514
2025-07-30 22:19:36,553
2025-07-30 22:19:36,535
2025-07-30 22:19:36,509
2025-07-30 22:19:36,546
2025-07-30 22:19:36,544
2025-07-30 22:19:36,508
2025-07-30 22:19:36,537
2025-07-30 22:19:36,549
2025-07-30 22:19:36,509
2025-07-30 22:19:36,526
2025-07-30 22:19:36,551
2025-07-30 22:19:36,520
2025-07-30 22:19:36,521
2025-07-30 22:19:36,555
2025-07-30 22:19:36,527
2025-07-30 22:19:36,513
2025-07-30 22:19:36,550
2025-07-30 22:19:36,535
2025-07-30 22:19:36,508
2025-07-30 22:19:36,543
2025-07-30 22:19:36,540
2025-07-30 22:19:36,507
2025-07-30 22:19:36,533
2025-07-30 22:19:37,548
2025-07-30 22:19:37,510
2025-07-30 22:19:37,523
2025-07-30 22:19:37,547
2025-07-30 22:19:37,516
2025-07-30 22:19:37,514
2025-07-30 22:19:37,550
2025-07-30 22:19:37,524
2025-07-30 22:19:37,506
2025-07-30 22:19:37,545
2025-07-30 22:19:37,534
2025-07-30 22:19:37,504
